relative_time,cts,e_cts
2255.58431,1967.3658549271881,940.0793266634728
2255.59126,-2840.7613612111563,942.5624226628277
2255.5982,339.5829381437743,932.4569291887752
2255.61209,1239.2225244121196,907.2250840914448
2255.61903,488.2466233682855,931.9593533312702
2255.62598,960.3280104778706,905.952615550382
2255.63292,662.1316760112783,887.3652132725887
2255.63987,-100.92225543771082,870.828133302569
2255.64681,738.8684875827771,858.5451048329807
2255.65376,-120.27133941268734,844.3077614824618
2255.6607,-268.15979029019985,857.5359449169011
2255.66765,1013.4572449492321,826.2655401682474
2255.67459,1158.1667452864524,806.7671492696754
2255.68154,160.84000081278074,813.8070105779416
2255.68848,1104.0260731427397,812.5193949576734
2255.69543,2934.877111470614,796.6847750217785
2255.70237,3250.9353828425337,774.8934807725201
2255.70931,4826.591619577478,778.1634276758581
2255.71626,987.8296396997318,777.84260570502
2255.7232,768.1037171028623,758.4501304730718
2255.73015,2559.656057039808,754.4224879460256
2255.73709,2073.955851295225,745.3861732658062
2255.74404,1637.3933399318596,730.7113868233495
2255.75098,901.1974576702247,734.057410786155
2255.75793,576.0376139009085,714.9193609297312
2255.76487,-179.75824718900654,708.3595367556795
2255.77182,804.6430276587058,693.3508312438236
2255.77876,1520.7777993348993,687.004091168969
2255.78571,2367.0360035126305,676.9245641164115
2255.79265,3345.468759714367,957.6379803212517
2255.79959,1424.6161683923972,800.3181379382313
2255.80654,-701.8035847672894,786.787012919685
2255.81348,2170.542511557985,747.1242151887599
2255.82043,1531.3287080478399,747.8766719730436
2255.82737,1335.9247808056577,728.4564081145833
2255.83432,3126.7267139389637,615.8839987873151
2255.84126,483.88346734245005,696.120696757758
2255.84821,2307.0798779443858,788.6532925207231
2255.85515,2798.9558781556493,757.5457473454803
2255.8621,2241.91053770979,736.3143255877518
2255.86904,1166.2683826806694,589.1519095217737
2255.87598,880.8933104906163,739.8776474988567
2255.88293,877.9556882272872,708.6343480498338
2255.88987,1834.380307782721,579.7095847861631
2255.89682,697.388837561905,713.5098853489387
2255.90376,784.5433091044628,692.9366212658548
2255.91071,1370.1060441814504,692.7678395261381
2255.91765,1321.6234325039102,565.5537851101632
2255.9246,938.6273709282171,677.6755403591187
2255.93154,-1079.8294682707974,685.7258143494139
2255.93849,392.7064782244571,706.2023876787736
2255.94543,-109.2667016504678,670.7601584310889
2255.95238,2671.13081561985,699.8996082999585
2255.95932,-9.740483031547717,547.1893751713478
2255.96626,755.2261942464175,664.1719761914574
2255.97321,2057.2621755815408,690.7004340463283
2255.98015,248.15232086495197,669.2768835471006
2255.9871,3044.040516874171,673.550979302721
2255.99404,1728.034486886987,647.0815153352813
2256.00099,705.4468559235233,686.8214151159963
2256.00793,847.6508243621142,659.7165710366271
2256.01488,345.322428396652,654.4559790398282
2256.02182,1113.7949142398672,668.6205480774732
2256.02877,1947.957321513526,508.2027293896117
2256.03571,2927.733042812928,573.9021035085816
2256.04266,1587.9850481055894,739.715015701073
2256.0496,1100.3595688725368,566.8037038641382
2256.05654,1711.880297746203,565.1808025207082
2256.06349,1547.0846315045553,573.1737909407756
2256.07043,830.3953400640696,683.2460210966525
2256.07738,3304.327584275438,643.9893473089323
2256.08432,1294.5066302041155,670.5573242351136
2256.09127,1248.0344800995979,699.3032917080848
2256.09821,4437.85618163672,709.1471848743577
2256.10516,1825.676773293765,631.5047374093181
2256.1121,-149.9928698967338,667.8103501717075
2256.11905,-237.97234476082187,643.3348340443223
2256.12599,3162.4324795872594,653.0206509253545
2256.13294,646.7087605214535,499.8767330026538
2256.13988,-240.49894590496234,653.710583299986
2256.14682,-31.792010934822777,722.9810237013837
2256.15377,-458.9101475819329,625.130892034833
2256.16071,1138.8675441738212,627.5506664098407
2256.16766,229.64555115916897,595.4127781851936
2256.1746,-247.31729541582703,631.1729822083769
2256.18155,551.5051538667364,624.2325449613608
2256.18849,1579.5845690885542,630.2623352510387
2256.19544,-897.8387921601125,625.6617231339015
2256.20238,1925.385667965658,624.9857989603395
2256.20933,962.6472219134926,626.0544083151049
2256.21627,-733.2588294373738,511.17383467013155
2256.22322,291.2221864267582,557.3316544091847
2256.23016,-301.37289336279974,565.8899819358337
2256.2371,152.22062941805575,525.8411045168925
2256.24405,-288.52600632820634,513.7380187927512
2256.25099,1009.2438513982466,619.6801073893654
2256.25794,845.1660200455559,484.8050475298914
2256.26488,1047.4680182681045,611.8711616760336
2256.27183,-1181.8195358485784,644.7832592573571
2256.27877,1328.0232442998902,653.634392352705
2256.28572,140.67844117576672,589.6073468882564
2256.29266,-311.0508519846952,652.9443460902598
2256.29961,893.400014626064,599.8146560676441
2256.30655,-804.7767319518417,649.5729251450273
2256.31349,-1369.4959471641341,588.4734798163132
2256.32044,540.9393258502176,585.6606785966615
2256.32738,612.6593792337796,591.8966058289085
2256.33433,1330.2084097789354,719.7664262754427
2256.34127,-1050.6975349976235,588.3971749812185
2256.34822,-346.3826100532128,577.0996177624866
2256.35516,-550.528793640966,594.8923108771601
2256.36211,2293.741564994221,707.9575127737633
2256.36905,-207.53502936846274,584.2075839832701
2256.376,-396.2875666344797,719.6928547478739
2256.38294,-1023.6623902601618,593.5925092608395
2256.38989,2245.163059777651,680.4956303988394
2256.39683,1498.349302768694,714.7147045287386
2256.40377,2535.829018122914,538.7195384758459
2256.41072,365.52624041250186,706.0006923609338
2256.41766,3756.9540856312356,603.1478107075158
2256.42461,1568.3284670339629,599.292480442407
2256.43155,2513.4993761788905,713.6114732786467
2256.4385,1010.9929404391168,712.8521832255486
2256.44544,2276.1671948181684,704.1494459512877
2256.45239,2240.069541203365,697.8389222011497
2256.45933,3189.9085979388797,699.2126370084799
2256.46628,1027.8262426122426,711.1653908187034
2256.47322,2566.527022720544,733.376133885355
2256.48017,3970.950540102822,699.8629364239877
2256.48711,929.1558909123313,713.4867661227831
2256.49405,1069.976350191625,594.9756767566963
2256.501,2162.7415379916038,550.1694775891399
2256.50794,322.3593424335303,705.2755686519079
2256.51489,1758.3716948912147,726.76107412172
2256.52183,1755.939392856714,718.1804245836104
2256.52878,3040.6758153099395,692.6429045946472
2256.53572,3991.6964581112848,711.6653583202934
2256.54267,-1413.8182370118147,626.2890172110674
2256.54961,716.0655278855404,597.9147795616018
2256.55656,-440.6534755147586,630.228852233848
2256.5635,-616.7509128242408,595.9559091681283
2256.57045,1721.6876329243187,596.6689607689153
2256.57739,-1503.4782404530013,633.3149842060775
2256.58433,-2208.632176920012,601.4069215892229
2256.59128,311.85512772415524,582.943201476971
2256.59822,-1249.2705045403172,588.8608122702785
2256.60517,-262.8165157407463,625.3135680878057
2256.61211,-973.2539356550844,626.3525666110417
2256.61906,-397.84691857793536,624.0174108815195
2256.626,473.5312928641962,597.7482755781565
2256.63295,243.0416052308166,628.5815788983131
2256.63989,-1120.9797547348132,585.4731053677049
2256.64684,-1112.2845340562483,595.1424085157687
2256.65378,1694.9546325562685,631.058524955735
2256.66072,-913.9251041640061,507.8566243241602
2256.66767,-866.4103111262181,507.39845365015185
2256.67461,-722.438462157517,510.89230399497643
2256.68156,762.6382409294438,623.9381449632718
2256.6885,367.9873560638371,511.01302507736494
2256.69545,-811.6018008437073,509.40470137407226
2256.70239,762.3618352058998,508.18040737815124
2256.70934,2019.2760342420527,629.5187617162139
2256.71628,1603.2829147761101,583.298303679695
2256.72323,3892.22331121349,622.4686505047259
2256.73017,1043.7960473828498,601.9388915664273
2256.73712,21.866801869657973,580.1243642031997
2256.74406,783.424816887352,621.0745497787659
2256.751,-448.07269713003996,629.3127386614583
2256.75795,-649.9087803072571,600.966517414132
2256.76489,900.977881965654,624.7043821729981
2256.77184,-676.635630733374,623.9496476324427
2256.77878,-772.4915867842434,629.6252468219055
2256.78573,394.059921000971,597.7892751910432
2256.79267,1225.8412757562369,629.3457661273948
2256.79962,1474.5628079134317,630.5827016706226
2256.80656,-991.7636664440203,608.4939324523087
2256.81351,-819.6540109268332,515.3054567709709
2256.82045,1901.0449950095447,620.0922673866899
2256.8274,2197.1281410952706,536.8632810024025
2256.83434,98.39030156633255,623.8238015984434
2256.84128,1448.8368035930037,623.8402014435982
2256.84823,333.9727105593032,637.4397730381024
2256.85517,1595.5682681724174,551.8644699185625
2256.86212,362.8045494437092,630.0079098755144
2256.86906,1539.220108538199,553.7542104091967
2256.87601,577.0839012442133,619.3063275852153
2256.88295,-1848.1221252563791,610.5238688414526
2256.8899,2134.6410866459705,621.738174068462
2256.89684,-128.39769046245,613.1702799654728
2256.90379,991.9236788220916,631.6260279307744
2256.91073,-134.12989189525894,625.8762877746751
2256.91768,104.26235723421043,618.9169451506057
2256.92462,238.2482949331119,609.9316522108676
2256.93156,437.0494956542079,613.5117156305678
2256.93851,2730.1585277318377,623.5850927411924
2256.94545,-672.2741830247422,625.570954546483
2256.9524,-841.8674873010106,618.9646641444932
2256.95934,-38.869569109381935,620.0985312164364
2256.96629,1917.1097822166726,611.1181354526819
2256.97323,25.41805167252395,613.7498550487511
2256.98018,323.1720458711947,629.6848101484047
2256.98712,-204.10871449708733,627.1362286562447
2256.99407,574.5298531370016,630.3787285965115
2257.00101,604.6291494986734,613.9931194185452
2257.00795,334.3321404989428,632.8823244023098
2257.0149,-20.2354728280234,625.2796295193606
2257.02184,-224.1307615624728,618.0189397405743
2257.02879,2136.7605388565835,620.8014468018155
2257.03573,1397.9291787010313,620.8312854089719
2257.04268,-625.8367687033648,562.2485329846171
2257.04962,382.40247829134495,564.1260874791989
2257.05657,814.3001448107174,561.7958289256602
2257.06351,-969.5169348282792,623.4056055469997
2257.07046,484.94159901836656,628.950005975225
2257.0774,-28.176528405100978,531.5529200310717
2257.08434,757.6770599945311,627.8422192125902
2257.09129,109.80744098931733,541.6195777606954
2257.09823,492.925818076789,534.7021458520213
2257.10518,411.17589272738763,630.5189244950211
2257.11212,-612.579316100837,611.7085298782498
2257.11907,-822.1324375258316,523.4561798128383
2257.12601,-26.46308624987954,628.6123286079779
2257.13296,1906.3282506812445,616.0999300818517
2257.1399,-374.26747176775075,518.2298680479253
2257.14685,-603.0144480778205,618.3017231816785
2257.15379,767.0901155620534,629.4586289506467
2257.16074,357.5618378336415,533.7286328215904
2257.16768,-1341.110890172379,528.220562605895
2257.17462,1827.2533222970703,538.3866443967689
2257.18157,1737.3458406369873,614.9330355439719
2257.18851,-65.38641040726827,518.901578372385
2257.19546,1300.4729849816326,529.5046477039424
2257.2024,394.5254943828617,522.4653558347441
2257.20935,1458.1761737451434,532.5865658270698
2257.21629,1193.9895876071014,533.9621028394172
2257.22324,2247.701163590962,532.4959111274649
2257.23018,-341.56640830497986,524.9218020857227
2257.23713,-1769.0829576456672,529.6139800049735
2257.24407,1120.8383060703543,527.2703965772467
2257.25102,-119.38756997935278,537.9206154636239
2257.25796,896.6245202917859,525.2080021612343
2257.2649,-462.1504836537416,528.8428456192637
2257.27185,142.9178172540733,529.533119657336
2257.27879,897.2753891463617,537.0839955851089
2257.28574,1866.103758253772,531.3993992583739
2257.29268,1277.113113876019,538.3655751512578
2257.29963,-646.9284501138378,512.6538068075263
2257.30657,-1253.4578177819944,533.609733944219
2257.31352,-1060.165940042543,597.5414553087062
2257.32046,1402.5589460984436,533.9498029555511
2257.32741,64.80717698743092,539.8562527431285
2257.33435,-839.1143632956715,528.4359244613636
2257.3413,-1957.1277960381353,528.46735749791
2257.34824,1413.9898659468704,535.4319389614038
2257.35518,668.6159925649304,613.0984167551076
2257.36213,562.75146156936,531.4160268791558
2257.36907,-163.66829077507848,530.565171023944
2257.37602,581.6907771910974,647.1098734008613
2257.38296,1146.918273715371,668.5181629330702
2257.38991,110.53791742558138,660.0830620207083
2257.39685,919.2791980557491,662.230416745647
2257.4038,2540.5593484597116,658.1384276039314
2257.41074,2615.686925225409,674.6610438216272
2257.41769,3910.3738398384126,670.4945720498342
2257.42463,2678.4597241989673,682.1570258232575
2257.43157,1117.9104781589926,618.5201600081136
2257.43852,-778.4258251983327,602.4165370565568
2257.44546,1431.232594809795,603.2247988694918
2257.45241,1439.231619283982,667.3910152421278
2257.45935,861.2474348734659,665.8718656968637
2257.4663,-23.2159169092562,662.5842661824215
2257.47324,1628.3143173215503,672.6016104887676
2257.48019,-886.2961483665691,663.8085601783426
2257.48713,1605.0104790202147,654.3067860040461
2257.49408,1799.147062672945,665.5152829525633
2257.50102,2905.1392950292266,652.0777737167749
2257.50796,748.6287870938868,674.9483827752746
2257.51491,164.50923839050947,668.7657550397803
2257.52185,-877.0330830495237,668.3071288145175
2257.5288,153.97370453240137,661.0757082038198
2257.53574,1701.2700534823905,648.7873270069935
2257.54269,1999.1250661717013,655.7746860332021
2257.54963,-85.32053608057464,656.6207586002438
2257.55658,2965.668162411935,666.3073726959707
2257.56352,-205.74095464123053,659.6388995477696
2257.57047,-483.77197117296106,657.5350499676161
2257.57741,1217.095147225004,659.7181654660171
2257.58436,191.38790127212047,661.8584591465142
2257.5913,-937.3372497760503,659.8323949430319
2257.59824,-369.0905873139288,655.0413624015987
2257.60519,1150.3982297469395,666.608378187247
2257.61213,-44.74276365539552,653.5733484846293
2257.61908,1359.1679169023582,666.412149484459
2257.62602,-1240.5559229334444,667.0014050318911
2257.63297,455.1863577415024,673.5805901342502
2257.63991,-128.09953216651326,668.6827308236848
2257.64686,-1782.130856671219,674.830622776039
2257.6538,824.1247909364961,674.8341532982598
2257.66075,423.5081207324401,666.0539723107685
2257.66769,-1730.4924136795419,679.6825852977342
2257.67464,276.75251193654833,682.8057308093754
2257.68158,-1295.0152531795372,678.8086102163669
2257.68852,2116.2209855663173,681.1922821544719
2257.69547,989.2629178335613,693.8005742196275
2257.70241,-1022.046891624614,689.0653467068456
2257.70936,-401.46023723919905,678.2514710323627
2257.7163,336.6864293811455,711.3198226939097
2257.72325,1136.3085988906262,697.5753858005393
2257.73019,423.5371621249012,697.049565765268
2257.73714,1830.6076600702672,698.8164213050557
2257.74408,-566.8502839798899,700.0611012196065
2257.75103,693.3343175108554,683.4076279041142
2257.75797,-325.15756601304474,700.9190181192598
2257.76492,1785.8877878654,713.5538460449784
2257.77186,-85.22464254154553,704.0601579054457
2257.7788,1851.2818287561777,706.6570278305611
2257.78575,1660.9521730477875,703.37774212651
2257.79269,-1328.3087610485202,705.2636104314827
2257.79964,2334.674781285564,711.224840257389
2257.80658,2353.0668659630774,710.6230570504637
2257.81353,-2292.18301026546,702.2162003158683
2257.82047,2949.779104101152,699.0714161196481
2257.82742,1267.8967425625394,699.0459052494074
2257.83436,-478.101041383855,695.967745424128
2257.84131,-903.1631613325127,700.3427457825752
2257.84825,1320.3484584309488,705.6722399065862
2257.85519,-28.10694295100748,703.7101806543326
2257.86214,711.6475918213758,593.8430624507024
2257.86908,990.6993848261707,702.7247094034764
2257.87603,3692.6933423733326,703.6764698615148
2257.88297,1778.7694578535811,700.8747157597795
2257.88992,1962.0393218863296,689.101904695003
2257.89686,2108.223897184961,689.8611947481011
2257.90381,584.1844647571144,696.1358438369633
2257.91075,360.7648187025982,706.0856526698601
2257.9177,-1815.1867945610866,571.5305036787156
2257.92464,863.2958210884085,680.2885823537616
2257.93158,-220.14616862895758,581.5511507316554
2257.93853,-452.67148704216004,560.0403621672299
2257.94547,2988.4064338310613,695.8694602410137
2257.95242,1327.7600495627205,551.6403387014487
2257.95936,-1271.5871632735928,551.4089186642664
2257.96631,748.1498888378077,562.5873492299999
2257.97325,-1075.0214664451419,559.7704480490594
2257.9802,2143.9698652314473,637.603543714022
2257.98714,-714.3559579159804,672.0661099893425
2257.99409,2400.0426279792205,641.2628730519697
2258.00103,-1244.440750142269,647.5499359125114
2258.00798,2476.199295028373,644.3033360109561
2258.01492,947.7032046797466,643.7089555119131
2258.02186,92.54569286152599,656.8280344209484
2258.02881,735.4777057092371,672.9675320337811
2258.03575,-1510.1812216087155,648.6272007411084
2258.0427,-2336.6903678101976,679.9974851022664
2258.04964,1574.065451754942,647.0171687206121
2258.05659,-672.1786311491536,658.6603754535413
2258.06353,752.5311530260013,655.0854369854519
2258.07048,-92.25470949784432,662.198869821287
2258.07742,163.52467824216154,663.8763234274192
2258.08437,-1015.2081561951195,665.6780286381605
2258.09131,-389.6661291532843,664.6755881030819
2258.09826,-50.69214914869045,662.718653802439
2258.1052,-1233.5562640233702,661.5633758215438
2258.11214,-421.3906046146576,699.9868463651563
2258.11909,2310.6695079404267,655.6397289741169
2258.12603,321.2398252260974,660.5405493678353
2258.13298,209.14870579899323,668.995238984132
2258.13992,733.0223983363938,647.7211092963132
2258.14687,655.0560539295498,656.7198409980532
2258.15381,503.08028331067806,572.8429468423429
2258.16076,2085.383810060499,586.8136788212851
2258.1677,-856.0645143655244,655.718311565483
2258.17465,1241.363843082939,587.4770753353538
2258.18159,1102.3635388401858,643.9863862257795
2258.18853,2535.654541992518,653.1784994349681
2258.19548,-730.6873564946853,640.9124402496024
2258.20242,2798.7095388148887,585.0899867628418
2258.20937,-2236.3265043224405,651.6416972785998
2258.21631,-681.36015279168,657.51637236619
2258.22326,874.031797498407,647.0337963413939
2258.2302,1962.8473559236372,656.1747739222877
2258.23715,192.60877863363416,645.7440168526678
2258.24409,-952.1237601636234,638.9817001460815
2258.25104,397.0143986607091,634.97205189358
2258.25798,-625.833238181144,631.3326529230077
2258.26492,-6.227841197483231,647.4373008648867
2258.27187,976.0509064686494,584.3968655294301
2258.27881,1518.767223874063,700.9070598988346
2258.28576,2523.1643515900387,627.3077437034873
2258.2927,-703.475343982743,698.1461915221724
2258.29965,1752.0475046034478,648.7685355177538
2258.30659,790.1862224914297,708.5989289398121
2258.31354,1168.7928199563519,692.6063466064901
2258.32048,1424.8613688550224,693.5118686122173
2258.32743,-978.8655298933186,703.5418544658702
2258.33437,-817.4201014635782,631.1342603517618
2258.34132,-753.5449823424376,701.6891275146476
2258.34826,494.8352611591714,679.6043443698088
2258.3552,-432.52382171840225,687.4783200246914
2258.36215,-207.00237606437662,687.050899060348
2258.36909,1993.0556429228996,694.484926091394
2258.37604,1614.666343406277,683.5454321585388
2258.38298,741.8666981629275,693.6382840852845
2258.38993,-772.6600268605193,696.8816951280597
2258.39687,921.8330183873337,697.1667563254357
2258.40382,-767.3341771465424,602.7623004585676
2258.41076,1636.9721827972628,702.01518832491
2258.41771,744.9677494387355,689.978613083896
2258.42465,2035.3838710427117,707.5381778441836
2258.4316,-1665.61064017422,700.4267949889927
2258.43854,999.452346626218,707.0421964160686
2258.44548,2415.17797673977,705.357909541122
2258.45243,-235.60518655568532,693.4964937573848
2258.45937,-3300.0334442646276,681.6644610295498
2258.46632,-591.4981123692127,709.8814196084696
2258.47326,950.2892552625726,720.4371116095801
2258.48021,4304.819726639586,689.301663920012
2258.48715,1051.0314540670229,721.0736305996456
2258.4941,-459.0045605793857,696.7568740843826
2258.50104,3021.0079593447686,582.3284350592983
2258.50799,-163.89287754344633,685.7893637493883
2258.51493,612.0319712688002,689.9917101824569
2258.52187,1258.597347032964,701.6901525049698
2258.52882,152.45979382656142,713.5855068571519
2258.53576,3688.8680784910084,716.5430594878563
2258.54271,761.9723388834764,706.4024885672231
2258.54965,-1642.1276563421327,701.0079645016611
2258.5566,-1694.364124242887,711.4771017644555
2258.56354,1207.59439804103,707.0612156809354
2258.57049,1646.2877503963655,710.505638714669
2258.57743,-2559.728034137987,701.9944607428396
2258.58438,1119.4182389228997,701.7730628332516
2258.59132,315.8700148160809,698.9346368555457
2258.59827,2479.9313986791944,699.2691253640126
2258.60521,1525.145966424532,703.7704273077132
2258.61215,-119.55452951405223,699.271972559352
2258.6191,895.0362408436823,697.6330130342078
2258.62604,-298.86884200574707,674.7887120606438
2258.63299,2470.0589196717146,671.5824284450935
2258.63993,525.8432683853506,683.0657366877649
2258.64688,-154.33131226702372,675.7266920932395
2258.65382,1615.8465628183449,686.9252808019758
2258.66077,1074.6408533721772,681.0576667588273
2258.66771,-1445.212210038196,634.9988155297699
2258.67465,-477.47750560453716,596.8243037466303
2258.6816,1626.3987242972348,675.7052811842877
2258.68854,107.44882437019876,672.2998077827965
2258.69549,549.3967487740399,683.8757068179035
2258.70243,5560.878400420172,639.8518030417872
2258.70938,201.1298648452444,632.1564034785888
2258.71632,-1239.9520897458751,628.313942536414
2258.72327,-909.619347596212,635.4133671711794
2258.73021,1059.2550653095775,589.0961044931225
2258.73716,-1339.6006238765738,532.3988787102998
2258.7441,429.7414285449747,530.540571256212
2258.75105,712.5778274826488,543.6631806874682
2258.75799,-253.1097435020167,561.727724013143
2258.76493,620.9659008046164,664.9334301130135
2258.77188,2221.0235127003093,656.5870478074257
2258.77882,-874.4414519638328,543.9439141479282
2258.78577,-33.244991660400494,665.0431040774853
2258.79271,1219.959539624205,603.363514226425
2258.79966,1496.0698381800096,661.1713739672219
2258.8066,-388.10233558509896,619.735001315508
2258.81355,1206.4474338705259,662.0473990292335
2258.82049,1077.6848468533844,665.2769157587528
2258.82744,2250.125379590699,657.4633006450645
2258.83438,292.8889345784146,658.8386098817847
2258.84132,689.3805881748187,660.0029988877658
2258.84827,2561.4871453064516,613.706577679593
2258.85521,-1795.7201783625017,660.9988339296572
2258.86216,704.2240424691788,662.2552442890061
2258.8691,-1611.4532265219123,598.1135137962885
2258.87605,-551.7996677526389,597.9151212250425
2258.88299,-89.40523640222156,540.646178618078
2258.88994,2496.2533445693725,664.8783084112437
2258.89688,-543.7737657544485,651.1385409182298
2258.90383,413.5333704683705,666.7818293273202
2258.91077,-716.6489751544802,643.7324164015093
2258.91772,45.490892702763645,650.7602056015367
2258.92466,1331.888710580407,543.1780186016427
2258.9316,482.357370640558,531.9289775914932
2258.93855,738.7892216645295,590.9667118310763
2258.94549,208.2426143541982,557.7253645807102
2258.95244,3496.0658044621114,640.1120366958039
2258.95938,-35.40886011830732,664.3065915871018
2258.96633,1900.6646097122068,634.9417577351692
2258.97327,-109.34141205617233,671.0895219879451
2258.98022,122.59852299525946,602.0722541961225
2258.98716,844.0426306524613,645.1834610342562
2258.99411,-487.6397152097494,597.8871048229033
2259.00105,-1104.0204926398746,666.601431030619
2259.008,218.5395532428686,673.4506441389622
2259.01494,1860.3228128367532,664.8368532471026
2259.02188,609.0667881545862,622.08735410488
2259.02883,977.3046974082862,656.0535972886449
2259.03577,545.8136103833733,595.6481842958511
2259.04272,-67.62817812965993,667.4643589940696
2259.04966,1986.36906161234,624.0620549044404
2259.05661,-860.6935984360551,634.921257928726
2259.06355,853.3677648279045,670.5354577749074
2259.0705,-811.352158756353,641.2798423361921
2259.07744,-329.71102857536226,672.8497720345456
2259.08438,-482.4440392666877,631.403946694305
2259.09133,-127.86127886051621,669.6986101207652
2259.09827,-1429.8216386874265,632.065976554611
2259.10522,-1340.2083292498046,628.3015287647345
2259.11216,343.1602682559488,627.7307230431013
2259.11911,-616.0966273352578,637.4464924191033
2259.12605,2284.675183931218,674.1726928770216
2259.133,1010.4198569612121,666.0236781523578
2259.13994,743.1281195860736,629.3192302668322
2259.14689,2720.958556263513,626.1972236333268
2259.15383,1466.9524825469734,634.0766659032607
2259.16077,-1117.0468668686606,654.0819714600509
2259.16772,1068.7842864469453,639.6054637010266
2259.17466,1521.3737742633323,663.2467515939819
2259.18161,325.60970063293365,679.2178091305385
2259.18855,-1349.9056488000076,667.101398532209
2259.1955,639.0067554650677,559.1286902195696
2259.20244,125.51541767651797,638.8307987930958
2259.20939,-1492.1293198303474,628.3253313177714
2259.21633,3344.395253183618,664.5781001346625
2259.22328,-1500.1946270120343,677.4353509602911
2259.23022,821.3335145136097,665.5936377683023
2259.23717,301.7894949848535,661.7110883157493
2259.24411,-293.1269601087843,671.7764932794238
2259.25105,645.4499585180196,664.1092240061781
2259.258,-983.267977214837,665.2481021419186
2259.26494,-1423.632063795304,664.3692298845676
2259.27189,-42.852567613507254,673.3870947389879
2259.27883,1042.5019401572079,656.6127864532934
2259.28578,-1450.5251904292388,656.9092364320268
2259.29272,1383.4692985627885,652.5719329398727
2259.29967,740.5868269139822,622.7508645067624
2259.30661,-91.03462935102547,629.5487142111839
2259.31356,-1040.1577872904134,658.4975158801304
2259.3205,652.3667070998123,659.0944019110719
2259.32745,-1711.9518192931275,627.9416432738404
2259.33439,-569.216303306891,544.6485380505109
2259.34133,-598.1555383994973,574.6497770046952
2259.34828,-1528.557361992329,553.8906480098584
2259.35522,-1369.971428785806,592.9436903869082
2259.36217,524.4101041393345,548.7262912155296
2259.36911,-2325.64085824943,560.8308574812473
2259.37606,-878.3344790952344,639.6496521726933
2259.383,1161.4144840661434,638.100550132459
2259.38995,212.5280988911761,634.276880679524
2259.39689,2263.1273818273808,639.6343912056743
2259.40384,-565.6817950126203,588.4988767987402
2259.41078,134.46904980408252,631.6679386461697
2259.41772,929.445849285691,629.3943962237909
2259.42467,-148.97824336560274,631.9540248338677
2259.43161,-306.81115034877405,627.9507542989264
2259.43856,-1832.3134717419791,616.9333611015865
2259.4455,-1238.4485428310704,629.0357634988462
2259.45245,-267.7388609312302,648.5554514185567
2259.45939,549.1375401103454,629.4010017169783
2259.46634,244.37750928404006,627.594171554626
2259.47328,-2108.1555644968166,660.7717416293906
2259.48023,753.8499739071888,632.3460266881896
2259.48717,1581.4598458268645,638.937170010974
2259.49411,-134.55833784992456,645.595848807208
2259.50106,1018.7152175263187,659.2917694919959
2259.508,-251.8769079200775,664.0564939484933
2259.51495,-1659.2508030008046,664.6384606758567
2259.52189,1469.35915982342,659.4577040363732
2259.52884,327.7089947005441,639.9837990177195
2259.53578,604.8588612186522,664.3707104261441
2259.54273,-2651.141112693519,673.1125112204609
2259.54967,714.785201085341,665.7775665872243
2259.55662,-1476.3650825632412,632.1659700549291
2259.56356,645.3844730252146,665.5337327783624
2259.5705,2847.471175635685,676.8652285655393
2259.57745,1229.641598207389,674.6122998374176
2259.58439,1095.5766223658677,614.3921823173088
2259.59134,-1872.756287108073,658.5180156865738
2259.59828,485.76250237860853,671.0780193187742
2259.60523,-187.1176777021614,545.0421343342227
2259.61217,519.3837793750574,563.7293023367068
2259.61912,1664.06324645119,628.7681271369472
2259.62606,2335.1537934294565,635.7328224882547
2259.63301,-187.2366904673463,662.777989353311
2259.63995,3129.767290785764,634.4503318195973
2259.64689,-95.90583891321465,610.3477982816671
2259.65384,1358.029722093499,666.788320932694
2259.66078,-713.4316444210133,654.8289616292832
2259.66773,-762.7450676985763,660.1477502988183
2259.67467,285.01507281134553,651.2944533350126
2259.68162,1989.2689870093761,666.946624993562
2259.68856,500.9348646785702,618.4350858113738
2259.69551,-1084.4685744689227,660.6655981871395
2259.70245,146.8232581571546,674.849869816533
2259.7094,-1798.9150731966943,658.44205251492
2259.71634,521.9353219503706,681.6207281091373
2259.72329,1973.4979164734555,598.2116850915894
2259.73023,483.86706749729547,654.4976619795963
2259.73717,-797.646329831784,658.2901261716121
2259.74412,1036.8856765186176,658.5445515471365
2259.75106,-1960.3434184543985,668.9502532977701
2259.75801,-446.03478859394596,621.3534610342089
2259.76495,42.62718363044421,664.4300459770162
2259.7719,2454.583729675459,652.66999034736
2259.77884,1735.1784416568598,670.0504095768954
2259.78579,-2068.595721349362,662.3699293172753
2259.79273,-2.7713460555108997,664.3691159967541
2259.79968,-1473.0839746541726,672.6708542794208
2259.80662,166.08931791603564,658.7864492631677
2259.81356,1547.6207014430481,668.5239712115625
2259.82051,979.6087617647028,568.6998220723327
2259.82745,-283.71026013122764,662.2216473840018
2259.8344,281.4761228923456,669.1411292733202
2259.84134,2623.986044088364,665.9847285201155
2259.84829,1834.4562709543748,667.3354379891038
2259.85523,214.91279581960293,668.5796623524002
2259.86218,1633.6149978287272,666.8617785724492
2259.86912,-821.3863584591081,652.7959502691729
2259.87607,736.2346041182502,656.3885413483662
2259.88301,-790.75885041808,662.9425572439255
2259.88996,398.07663029791416,683.1054835347022
2259.8969,-416.2421921142291,665.9194708029376
2259.90384,405.36510870321246,615.8894654023668
2259.91079,-2607.7426807895517,666.9973050706024
2259.91773,283.2963918166996,697.4154873102814
2259.92468,1420.9856526712833,621.8300815340162
2259.93162,-238.04181632710223,687.2937078788879
2259.93857,-1748.3193870261016,660.5790434488233
2259.94551,2997.306083134992,683.6600032989943
2259.95246,-50.7801844285831,671.1388354112225
2259.9594,2545.7541133002646,632.7120621210166
2259.96634,-1092.9750830403955,674.2167674608748
2259.97329,774.0559497914966,683.9793447282559
2259.98023,1914.1882181350577,684.6511689405291
2259.98718,1359.6402096652496,606.6298167197288
2259.99412,-574.0991294260647,701.8199846124442
2260.00107,15.94577444194325,596.2499675027765
2260.00801,-2393.140457037565,697.8416555086756
2260.01496,1199.6924059840082,678.3153620957777
2260.0219,-237.60961207458863,680.0044322588944
2260.02885,-1600.8006159914503,713.8957372613276
2260.03579,13.178300572093802,687.411581765937
2260.04273,711.8822007173384,699.6934713573895
2260.04968,-252.5007853628362,585.7755914005576
2260.05662,739.7508903623487,667.7510146208353
2260.06357,93.28368589348585,620.4798276162823
2260.07051,-1686.795937367451,649.1272821305121
2260.07746,-258.0771882666759,654.7962758267873
2260.0844,542.0966538117572,646.6647998254139
2260.09135,314.7807917670588,677.828150029308
2260.09829,-351.06476584486916,683.2033131665622
2260.10524,553.1988934302096,655.4442974860239
2260.11218,-181.785336382811,665.989397920472
2260.11912,475.70620844002,608.1269859169731
2260.12607,-350.0368144395498,585.9350343395613
2260.13301,-2192.117988400521,651.1530046705536
2260.13996,1088.115717810818,702.5482971802502
2260.1469,414.15394516453534,582.0293656608528
2260.15385,1859.3286861120655,577.9280377184242
2260.16079,-991.0074513618886,585.9188622700337
2260.16774,1147.4153940216213,687.3197881881963
2260.17468,820.5430191995924,629.4701316198177
2260.18163,-83.38785988422316,623.0876307715008
2260.18857,318.6901048558017,590.091939535014
2260.19552,-874.784709833945,632.0394406940482
2260.20246,406.45307898628545,671.835259391228
2260.2094,198.5689834692185,616.8306342937426
2260.21635,56.649848452376,626.5129206525539
2260.22329,-586.7288324001723,628.6734863638673
2260.23024,833.5769100240742,627.0847513645093
2260.23718,-1334.5315911822063,625.4139032515643
2260.24413,574.8655944114181,628.9649252788032
2260.25107,-1366.7645757311877,673.9889918337268
2260.25802,926.67609765957,637.5792856097307
2260.26496,484.02833264131635,654.7523151307479
2260.27191,906.9635976714789,633.7224748030454
2260.27885,2375.1700989337155,650.2112663401098
2260.28579,-4.242548831260418,599.1789342922738
2260.29274,-555.1206363964582,653.8579541307508
2260.29968,987.0440415616981,648.0184703775551
2260.30663,-125.75606262659986,647.1309426463725
2260.31357,360.1919630003207,678.8119129629606
2260.32052,622.7844614117668,630.6590065057171
2260.32746,1463.7856041149196,646.4825793236954
2260.33441,-1273.7270014028354,652.5282000194602
2260.34135,-511.1425155213987,654.4894620570188
2260.3483,1983.4558113411158,649.6098247966253
2260.35524,-2322.9255449981974,606.4330185778728
2260.36219,-1036.2824127701158,645.617715267414
2260.36913,-995.5759471155977,654.9230329632953
2260.37607,1175.21552320286,637.0305741239309
2260.38302,-719.9807631405889,661.2510954367239
2260.38996,1080.9790518610139,649.621896904864
2260.39691,1035.647032658186,654.8634696367961
2260.40385,-156.70906203882265,664.8746640012093
2260.4108,-851.4746077028631,656.1564379843022
2260.41774,-773.4498388476554,657.5784412245878
2260.42469,350.53997079992,614.3721380621197
2260.43163,-131.48883349847682,663.6985445504301
2260.43857,656.8301982894064,658.0370674498505
2260.44552,2832.995123427915,668.0468951605008
2260.45246,1769.3098221703067,643.4932519930039
2260.45941,-532.4270090002525,675.1869777447122
2260.46635,-1420.6154033893545,655.3285874674325
2260.4733,-965.3116273120575,650.9046153491486
2260.48024,3322.160593676116,673.7015389922659
2260.48719,-1292.8749594990402,677.4690617531089
2260.49413,674.7701483470312,652.123442730018
2260.50108,-1250.9049085529184,681.0928580932216
2260.50802,-1288.488456471422,675.1876610715937
2260.51496,990.3736656793488,662.9321934528903
2260.52191,1979.0472140776642,673.2654625540908
2260.52885,-1041.8525518442088,654.5517586910439
2260.5358,1338.047307987237,698.6231536854207
2260.54274,742.5638054698143,672.0773848828863
2260.54969,2706.935663665954,617.3787763404746
2260.55663,1052.7176770348,654.6774908372297
2260.56358,1013.4292285470929,700.5380633828546
2260.57052,2771.750812800335,624.4099821749091
2260.57747,225.9323528854007,650.0960118727729
2260.58441,32.01967267415725,682.0973486089447
2260.59135,517.4962027528812,664.8566697266646
2260.5983,4761.615774738144,659.9184941300938
2260.60524,1460.6354671914614,666.9238474308471
2260.61219,1077.198887552864,609.7225541851457
2260.61913,615.6635119802359,673.0346119559763
2260.62608,197.04072289886832,657.7115760786559
2260.63302,1486.6165802142953,670.5346605602123
2260.63997,-2316.8330025232403,662.1882782546247
2260.64691,-373.2205010975645,664.1742539477289
2260.65386,-1004.6816194742837,679.1899066162127
2260.6608,-112.20705722132256,674.3415885045521
2260.66775,-380.3756168731677,701.3818581936248
2260.67469,670.541721604654,658.1544857856454
2260.68163,-958.0339682490485,684.6847658455335
2260.68858,-1466.61810792632,661.0719499059718
2260.69552,-705.2439078397343,637.0682709902239
2260.70247,-80.3378303488966,636.0455584243289
2260.70941,-582.1375590837481,644.6543382523913
2260.71636,-444.45174798526665,667.4569562861872
2260.7233,1031.1913997277286,688.239660058434
2260.73025,-560.3330538481151,661.8531064192762
2260.73719,-525.4598081170466,633.5238544561723
2260.74414,1350.6374918900347,669.09842134323
2260.75108,2146.939262194763,686.8241484235219
2260.75802,1119.076689369991,646.6034142938975
2260.76497,-828.172591606545,627.5291416130751
2260.77191,669.9194385912854,655.5344966343745
2260.77886,-59.014273349986816,620.2128745812648
2260.7858,390.2368209871039,655.8130662263766
2260.79275,-2042.36325792197,627.5705967772162
2260.79969,-1032.5736561210767,649.7272431324202
2260.80664,-111.06544577805627,673.3449562479656
2260.81358,-1533.9917467926416,661.9573137686965
2260.82053,1263.4086516052132,624.1620484047585
2260.82747,194.23190775269165,682.3457379303497
2260.83441,-2512.1952468256545,643.8160100566727
2260.84136,458.81072352068264,655.7151227067029
2260.8483,2145.92998839087,642.7896530807433
2260.85525,-457.90656816871837,676.1741573127721
2260.86219,-435.90549256685654,639.1380681141187
2260.86914,617.9544792380915,630.0937812869491
2260.87608,1099.3533700396101,664.3618271766854
2260.88303,890.8758051260088,665.9809702222676
2260.88997,-295.997046898664,628.7015027660065
2260.89692,156.7344590212497,639.4102599885607
2260.90386,-565.6887421692485,665.2534548691565
2260.9108,55.866983621868094,665.6487594700722
2260.91775,480.1612719314096,631.3039531939871
2260.92469,593.3659863996407,658.6592365754057
2260.93164,-538.768396347869,633.7533384005241
2260.93858,2930.2032694893496,649.8132284316684
2260.94553,-159.62664004696268,640.0907396746655
2260.95247,662.4355286978938,664.3924629985368
2260.95942,1822.1004681719128,659.8953749039383
2260.96636,102.62020885028632,646.320403077166
2260.9733,1918.7121837536595,634.1321292684714
2260.98025,-275.1276745002874,630.6767730046348
2260.98719,-179.0183180642159,665.9847285201155
2260.99414,2015.905752174956,632.0592571736101
2261.00108,5.581869518891278,656.9681164316445
2261.05664,98.3914404444684,623.0715725897869
2261.06358,554.5541584117408,680.2483799555702
2261.07053,434.1233760600498,627.2804106282294
2261.07747,1094.5467348677173,631.9135946600488
2261.08442,4285.702290477419,629.6036081373264
2261.09136,1071.469191651954,632.8268610370992
2261.09831,-76.60276561492216,634.846889186462
2261.10525,497.86057703895244,634.971482454512
2261.1122,-545.6145344852458,628.7223442358904
2261.11914,290.6283753667832,636.1125244587105
2261.12609,-453.6620832446271,673.7304664969137
2261.13303,593.3288589724156,631.1144438721998
2261.13997,508.6064616887317,635.188894290625
2261.14692,505.3338953656815,633.907884163544
2261.15386,-1729.5892833178998,630.4860109168983
2261.16081,1694.8345948007616,659.2925667066908
2261.16775,-604.3045692299875,634.5893888399711
2261.1747,1410.1504799756624,638.274342935973
2261.18164,246.42042888393138,633.4999380153218
2261.18859,370.377405719502,631.0028338148973
2261.19553,1006.251790760029,661.9726886235289
2261.20248,1222.2415097447886,634.599069304125
2261.20942,-1279.5200189280931,648.4736799684105
2261.21636,-1554.6086299083247,661.0617000027501
2261.22331,1080.008727689363,668.018764870548
2261.23025,14.249984897825698,659.3094221030998
2261.2372,830.872530002945,658.544437659323
2261.24414,-730.7324560688606,685.3399624370251
2261.25109,557.3472570396443,629.8015451573182
2261.25803,2883.795807662942,670.4099534043487
2261.26498,1968.5087191364034,638.9813584826408
2261.27192,510.7426554079401,693.6979612995973
2261.27887,-847.2768167823373,677.9356601253219
2261.28581,-936.4218195305422,671.1461242312914
2261.29275,21.814185699786798,680.7113339177486
2261.2997,619.569750098012,677.5590331258326
2261.30664,1084.7272136935492,700.4810055882541
2261.31359,57.23990121450315,677.2978883693071
2261.32053,646.1780433101985,678.2202657714435
2261.32748,-876.2017020104333,665.8269938983154
2261.33442,-1580.3101483488342,673.4219444099416
2261.34137,-145.4011410290554,680.6030266070396
2261.34831,1197.1480383409503,673.2048742372695
2261.35526,1941.4751688283318,664.6538355306892
2261.3622,186.5329776672723,667.3591266543272
2261.36914,547.709614703754,684.2936750937201
2261.37609,129.2463824492038,677.7165399720054
2261.38303,-611.8038539782114,676.6861969226009
2261.38998,-2080.7409455645256,685.5533881996629
2261.39692,413.5349648977605,687.2318667961172
2261.40387,-1646.2313759286467,671.1103634578291
2261.41081,1481.5231755278235,690.1150506845578
2261.41776,-722.6674905506143,680.3881203028253
2261.4247,-662.5757245964036,672.7299620546656
2261.43165,199.66105371357997,683.179852276966
2261.43859,-291.02094666017297,685.4922304437736
2261.44553,241.1461703495036,687.5863995597731
2261.45248,-706.5090875607284,695.3874870139682
2261.45942,-1519.8596357818653,690.5985044531795
2261.46637,641.1126550258655,692.094876435729
2261.47331,-1773.292820674432,692.8394749608761
2261.48026,961.8178908550462,670.0069044321102
2261.4872,-242.85164035777495,700.540910578194
2261.49415,403.82454824899645,700.3006072915528
2261.50109,608.8412902837096,694.5375422612652
2261.50803,-748.5446239996554,713.8796790796137
2261.51498,745.4422060700847,701.636853008217
2261.52192,6.331251332208493,695.8718518850987
2261.52887,2601.5461587408013,661.6733914494563
2261.53581,1155.8946834056499,710.0424569768633
2261.54276,1436.5708582954514,672.8607052646487
2261.5497,-655.9102125313552,703.4243222422617
2261.55665,-715.3866426288255,701.6847997777317
2261.56359,-575.6492564566211,713.0806421795781
2261.57054,652.1106872948977,708.5575876634848
2261.57748,304.08672607245575,665.575529605944
2261.58442,505.32170936962905,697.9142020459221
2261.59137,-25.392199138842674,696.6854664252718
2261.59831,-1115.8041230469407,696.0823165645836
2261.60526,-202.0934696358945,694.6761437303848
2261.6122,355.2827149083976,702.8374583389146
2261.61915,416.3138275489672,705.4873999851557
2261.62609,355.617658968119,690.5169607786605
2261.63304,22.4144883651356,697.0351020129441
2261.63998,-857.7839925748652,691.1952765963076
2261.64693,-1568.908156005055,693.2641626176937
2261.65387,403.70086608345497,709.6242609254193
2261.66081,757.6020079253859,683.5815345954418
2261.66776,1212.2371486491897,693.2740708574746
2261.6747,-15.263130887380376,679.0382080485322
2261.68165,-537.4941056017891,701.0867748686544
2261.68859,23.30600216979327,690.1791695236
2261.69554,1535.3744587372444,691.9404445605227
2261.70248,-54.959525523309956,685.0411208142067
2261.70943,-864.6097447936123,687.5498415716158
2261.71637,1323.9346717925819,683.2912345586415
2261.72332,-1201.5077777323784,680.8441271083759
2261.73026,331.7782062795448,685.3597789165868
2261.73721,-422.86659067857727,684.7681317250697
2261.74415,-443.2256317843285,689.9930768362199
2261.75109,156.1760670712961,690.2218774536902
2261.75804,1392.963556141389,690.845982672076
2261.76498,-660.8415548591114,686.0639472679152
2261.77193,598.804243385615,691.6794136918107
2261.77887,-359.9925454387524,700.058823463335
2261.78582,520.0357871077689,702.1303289044333
2261.79276,-3042.532414446823,684.9035443354093
2261.79971,483.10584135136656,700.5025303850194
2261.80665,862.1789233006879,700.381012087936
2261.8136,909.7086356420541,701.5454010939171
2261.82054,-918.701217401861,701.9140559464563
2261.82748,1438.0301028507756,712.8082225295091
2261.83443,-1041.84685745353,697.666382163585
2261.84137,1860.6424959294557,713.6743393517396
2261.84832,-531.13574896995,697.8717218914591
2261.85526,900.3705182558637,677.3785209413177
2261.86221,-1860.4614143058732,689.5288701080921
2261.86915,1079.8708095471247,696.6269280890946
2261.8761,432.18899154649455,716.071222276219
2261.88304,2622.7776943863432,716.4027497015331
2261.88999,-187.91033688463685,699.7197794423251
2261.89693,-2127.2035290927033,711.8560065202164
2261.90387,2503.3365971346107,713.6047538976459
2261.91082,-218.29674442432866,688.838254406579
2261.91776,-1163.9684182855415,683.2982956030831
2261.92471,1157.96527774424,706.1001164221841
2261.93165,2552.8012634285997,718.8459849661373
2261.9386,-147.64883091775283,706.8787674035898
2261.94554,1831.4114802584725,715.8842184863306
2261.95249,490.2540099703417,715.5520077341349
2261.95943,-981.7088530470081,688.3721115856205
2261.96638,1456.287572132645,710.4983498946002
2261.97332,-2046.0506036620573,721.696255276455
2261.98026,-1826.2270792089548,711.367086136543
2261.98721,424.46648668366555,713.8459682867958
2261.99415,2877.566258148255,696.4524519586992
2262.0011,833.7768970247103,697.1978476985413
2262.00804,118.56165555531373,712.379093247962
2262.01499,-139.2609934480242,702.3989902566545
2262.02193,1002.5951947296073,703.3580395347616
2262.02888,-605.1572472902162,697.8400610792854
2262.03582,931.8672180900888,697.9374351598913
2262.04276,-2560.1240220657837,705.3530123651382
2262.04971,539.3095912379731,698.1950493941957
2262.05665,1358.4309488607205,710.8978683446179
2262.0636,-3325.677335471469,693.6735893074925
2262.07054,1357.5114186539236,685.299076711952
2262.07749,373.47743200498763,713.7241083262716
2262.08443,378.17154601706915,699.7932370820803
2262.09138,-678.6556588827369,692.5874412294368
2262.09832,1921.3054092687403,704.2809863759658
2262.10527,-137.62294502538862,695.8702574557086
2262.11221,178.6293911808605,695.3980785806307
2262.11915,2649.5980467074046,697.3994291285674
2262.1261,-1194.3497008736226,692.2536360478513
2262.13304,1924.2059041048444,688.9815252760552
2262.13999,800.9732206419093,697.9690959720649
2262.14693,2897.613702196067,694.6639577343324
2262.15388,1181.0343932617989,704.4531847500897
2262.16082,1967.1884177136394,687.5788829640773
2262.16777,86.89241568352382,705.1924305479988
2262.17471,-1230.6926688388642,704.7051045937155
2262.18166,-1489.3514821694628,681.5022847830204
2262.1886,801.8268098046468,688.4610579680218
2262.19554,996.3237344995251,681.061766720116
2262.20249,-162.19048250614162,685.6139765164842
2262.20943,1573.0303254173675,681.5206207210057
2262.21638,-2358.176556606891,675.5777268330847
2262.22332,1593.1581742615635,695.5823490629934
2262.23027,1529.8600108039889,701.7772766823539
2262.23721,1298.1907870854227,705.136511631534
2262.24416,4807.874499080024,701.5001876319282
2262.2511,-1529.8636552140233,693.0878642822811
2262.25805,1249.7306113071566,700.9183347923783
2262.26499,2342.987111134893,698.9051399118299
2262.27193,1190.207714981748,703.1866383753327
2262.27888,-442.89000439772576,687.4383454021269
2262.28582,-1313.0860603349588,679.4766761307923
2262.29277,1423.0537414779747,679.0942408528107
2262.29971,863.4885192689758,653.6112731265495
2262.30666,-893.6971479316786,672.7788199266889
2262.3136,1154.6886114599008,674.8726473792477
2262.32055,-1870.159872734212,686.099024714496
2262.32749,-1050.4875258693933,699.0638995239522
2262.33444,-28.57718573325454,683.2112853135125
2262.34138,1895.2901299018342,680.8835322918725
2262.34832,-354.24098307763586,686.4717795283239
2262.35527,1797.920263145125,685.5301550856938
2262.36221,213.09047691460464,678.6859530411476
2262.36916,-236.82458337562278,691.7266771344441
2262.3761,-1054.3554976818084,687.3317464086215
2262.38305,2239.8660236805085,687.4074818046482
2262.38999,1274.2783323083474,702.8159335421491
2262.39694,-1082.0826247745463,687.3630655573544
2262.40388,-366.8177282184315,692.0604823160296
2262.41083,-146.52396098308193,695.0208821420734
2262.41777,-357.77924966975445,693.1028974736729
2262.42471,-156.0695819656044,713.0124233792474
2262.43166,1553.6806720033233,702.7524980299884
2262.4386,101.73177001659516,697.736423168933
2262.44555,-1118.4785505731,709.1491209671884
2262.45249,794.3015586349279,700.7744944838344
2262.45944,-1366.5831524441644,704.7297043614475
2262.46638,-2227.819198536273,693.2977595226981
2262.47333,-1639.3830739228117,702.182603410864
2262.48027,592.7318590536605,702.2939856925392
2262.48722,-46.295965656918554,706.7402798222838
2262.49416,1988.3367013674588,693.9011371590134
2262.5011,429.921826841676,690.8426799254822
2262.50805,626.3336612339883,697.961807151996
2262.51499,-2061.778624604447,693.2876235072899
2262.52194,1835.3724984145779,686.4193911340799
2262.52888,-1003.7615198284191,692.2821080012448
2262.53583,128.8070032644351,688.9892696473783
2262.54277,-2011.9085176941337,685.7862887784217
2262.54972,-2203.2320723515854,694.8886583905139
2262.55666,6.519280112419249,688.352181218245
2262.56361,-1426.2536473759649,698.5935428538913
2262.57055,-709.394435317627,693.4616440864312
2262.57749,136.2511663108892,687.4916448988795
2262.58444,-228.97076586374277,680.0576178678335
2262.59138,-1015.1948313209314,693.4402331774792
2262.59833,-1695.806627289616,698.9971612651977
2262.60527,197.3123453342424,689.1344766096851
2262.61222,-1015.1626010696898,700.164169690891
2262.61916,472.32510703063355,686.4231494319279
2262.62611,-494.96623214478154,690.7276532337725
2262.63305,206.02351030670778,707.5700664319842
2262.63999,-850.6921984236094,700.3787343316645
2262.64694,-1468.9630580078094,694.554169882047
2262.65388,-1489.2784800809616,699.1433932178268
2262.66083,447.2185385282346,693.4425109337508
2262.66777,1768.4295832591934,705.7872665982961
2262.67472,230.18401274174713,696.1949516122083
2262.68166,1613.3664279021425,695.6794953679722
2262.68861,-518.9816415053275,700.638740210054
2262.69555,-166.6962260745717,714.8577476225876
2262.70249,-1485.4877242061493,694.7994842324855
2262.70944,-13.178186684280256,699.2455505866027
2262.71638,1323.3384690885216,699.5847084954263
2262.72333,97.00542575327215,708.3882364847002
2262.73027,-1741.6242641295237,693.4732606434156
2262.73722,42.927391907025324,704.4436181737494
2262.74416,756.969361120982,702.3166493674405
2262.75111,-349.4205674803007,710.9398929478268
2262.75805,-1286.5390387664754,698.9389645924614
2262.765,-2381.4104677906926,707.2889913080836
2262.77194,1970.2507471328322,721.2990145827085
2262.77888,2321.503769533539,699.7242210670545
2262.78583,929.1470076628727,710.3862842860433
2262.79277,-1497.7991107413177,703.0874420897097
2262.79972,-1015.3035941828946,701.6370807838442
2262.80666,77.5606760148934,700.1671307740439
2262.81361,938.8056053564605,710.878849079751
2262.82055,513.0184755865904,706.9136170745435
2262.8275,893.8248161706952,706.7894793577477
2262.83444,301.4405427240627,703.4586024741475
2262.84139,1037.6987216197224,720.9150987631505
2262.84833,-194.02747912732607,718.6332425303808
2262.85527,-1769.6995462683572,683.1207445017211
2262.86222,1123.8781995902727,681.6263086120025
2262.86916,-989.9182283128663,703.8078963983792
2262.87611,-1796.9822831125293,707.7553619046693
2262.88305,968.4829473688403,701.8837617880456
2262.89,-2643.7655101108367,699.705087914374
2262.89694,1527.6492205668894,702.0436602783035
2262.90389,1130.1019408264674,705.3966313977371
2262.91083,-1155.1975760987632,709.0181499815783
2262.91778,584.9100440173947,699.0129916712845
2262.92472,118.30814128229791,700.0439041597568
2262.93166,-715.9421873834395,699.8247840064404
2262.93861,2546.1019266829203,696.5989116869554
2262.94555,213.73861246165455,694.2614782011616
2262.9525,2661.025663809238,693.2458266797082
2262.95944,1097.4686406127732,662.2586609234133
2262.96639,-56.228463542151886,690.4577391156021
2262.97333,-864.9097252945664,692.1013680411028
2262.98028,101.40081203034906,694.2994028430818
2262.98722,-495.28466247153455,700.9086543282247
2262.99417,-97.14323000769676,693.7965881461524
2263.00111,114.29336807818551,691.9378251408103
2263.00805,1799.9213859174347,687.8943522076773
2263.015,-1069.7205581623377,695.21483308859
2263.02194,546.156754365672,689.3841186970394
2263.02889,655.4871193039277,691.0611167519173
2263.03583,172.37717799127233,696.1900544362245
2263.04278,213.2164368364175,700.0347931346708
2263.04972,1534.5085696906408,699.4536236220026
2263.05667,768.5697460360074,695.7666195453563
2263.06361,64.58464019970702,693.1650802198843
2263.07056,480.67934759535785,699.8693141415479
2263.0775,-393.909930750494,709.6041027824167
2263.08444,-1125.6418662712806,703.7307943485895
2263.09139,-1264.0499538834488,705.9658426899801
2263.09833,3111.741355428891,709.8933778288948
2263.10528,-167.83385144436286,712.6542462055569
2263.11222,-3062.0542662349912,718.800315952894
2263.11917,654.6106386906616,716.1314689295998
2263.12611,331.2153727048619,696.6884275084246
2263.13306,88.85538603828606,715.8700963974472
2263.14,1485.5742789444657,698.3425341127742
2263.14694,23.57272742918366,698.2573460282207
2263.15389,1948.2626547417176,701.8919617106229
2263.16083,119.91008726803044,639.3675520584704
2263.16778,-274.58818792738714,712.7437620270262
2263.17472,374.9784733878936,704.9153414975732
2263.18167,-835.7562672246274,679.0009667334934
2263.18861,-3189.112749897624,706.9914024512145
2263.19556,-2462.09565597099,708.6320702935622
2263.2025,-688.6059232668879,705.6334041621576
2263.20945,-975.1677064743826,710.5712380952875
2263.21639,-96.69963697382585,705.0930064867487
2263.22333,576.7395044959654,686.5929561619666
2263.23028,602.2151834021579,713.6001983851029
2263.23722,1085.5845611541347,687.149525906903
2263.24417,1244.4077226763327,697.4161706371628
2263.25111,1255.401199432822,713.6834503768256
2263.25806,-679.0042694800871,649.1231821692234
2263.265,837.4244959178598,705.980306442304
2263.27195,688.1712134824759,598.4577966567228
2263.27889,-2688.232665257383,703.9927363198099
2263.28583,-435.6904723748287,696.4652073938195
2263.29278,578.5299348131631,693.9308618783562
2263.29972,795.6083074078766,705.1133924053785
2263.30667,-286.4688507516183,688.988244657056
2263.31361,1261.3120908451285,708.2437128492749
2263.32056,-680.8327383270184,682.5831940216516
2263.3275,-705.8883989767497,692.0640128382504
2263.33445,2704.89297184169,696.3631639128572
2263.34139,-2470.2667649314867,702.149689832741
2263.34834,-658.1830716268527,673.3068038304183
2263.35528,747.4859228846709,692.23575566112
2263.36222,-530.5241714110573,696.4345715719681
2263.36917,-333.5815059196764,701.2437122757594
2263.37611,799.0318889717261,686.0289837091481
2263.38306,-2585.3687364860484,689.0106805563302
2263.39,87.93266697270917,685.5416577548647
2263.39695,-97.43774389359919,686.7362270314429
2263.40389,1061.636231715784,692.1495425862445
2263.41084,892.4766122336056,710.4456198369153
2263.41778,2277.9141199905807,623.1487885273901
2263.42473,-77.49872104430919,665.0292097642292
2263.43167,593.3044869803108,679.547856014276
2263.43861,-1334.071826078808,697.7148983721676
2263.44556,-934.6482446097533,690.859079770637
2263.4525,1943.4136533031756,690.0075405885439
2263.45945,844.1763349455973,696.8499204280727
2263.46639,-1270.4167382134922,746.0899999536939
2263.47334,-1531.4238043721743,680.5729602242561
2263.48028,-1236.546046905316,687.9408184356155
2263.48723,1514.4121538829913,701.4706906882125
2263.49417,-463.39197470951234,689.0763938247625
2263.50111,1603.8536066099296,697.3919125328716
2263.50806,-1754.4439319766725,688.6183370385676
2263.515,-90.41439631830126,692.3977041320223
2263.52195,137.00066201202003,687.495517084541
2263.52889,-1223.7368567370156,701.7142967214475
2263.53584,696.2056570666841,681.3714276852238
2263.54278,-1801.4106968555427,697.7434842133746
2263.54973,924.6048199940988,687.8785218015905
2263.55667,-968.0351404858671,691.6327196882455
2263.56362,-618.7054554807987,690.0951203171822
2263.57056,-325.95125018584224,696.1665935466284
2263.5775,546.0630246951004,691.0899303687517
2263.58445,3.152528567543237,684.9574132712298
2263.59139,1184.4256306865936,696.6411640657914
2263.59834,-1332.9479811344593,673.133352690345
2263.60528,-467.57313800925647,690.5288051112723
2263.61223,671.2908756423441,697.248755551209
2263.61917,466.2161647105217,701.8981116525559
2263.62612,1269.227749439779,702.0728155585786
2263.63306,825.4241370015625,707.4995698753819
2263.64001,-112.42651903807989,673.9006148903933
2263.64695,77.01412839755156,669.1571874550343
2263.65389,-1429.5656188825114,711.9812831151479
2263.66084,245.2189124507251,700.557765974603
2263.66778,866.8917149141955,700.0557484923685
2263.67473,-834.9014252959405,696.2637398516069
2263.68167,666.4495046873111,701.1310772281347
2263.68862,448.75818787994217,706.1591103096154
2263.69556,-391.79583126711896,694.4000796702812
2263.70251,-1526.1314376753878,707.5882884821561
2263.70945,224.39634794372762,701.4003080194237
2263.7164,-336.2457974304277,689.5119008238695
2263.72334,-1216.6394820828943,669.4326820760699
2263.73028,354.7129341770866,693.8701596737213
2263.73723,1760.152558632072,704.0928437079414
2263.74417,420.0234953005148,689.5678197403345
2263.75112,-821.8605873148306,694.5440338666389
2263.75806,1280.48066263559,695.1875000133323
2263.76501,-3011.505274067964,695.8387105313486
2263.77195,-2075.7075597558073,684.1128212457647
2263.7789,-78.37599887227012,700.8634408662357
2263.78584,-1061.2975293582147,706.1275633852554
2263.79278,201.46253114869435,711.7527102733048
2263.79973,738.3728478181027,701.4140884448663
2263.80667,525.325989936097,666.2233234895531
2263.81362,1281.5136251047068,704.252058871318
2263.82056,-1456.429590236172,701.9940051915853
2263.82751,1758.4748772503126,688.6747115062867
2263.83445,502.25596331602924,694.6916324730308
2263.8414,-1823.7812245246387,710.7320476880542
2263.84834,59.65739783323935,675.0065794480109
2263.85529,-1723.5664401848499,719.1955066659959
2263.86223,-655.8528130733139,708.965533811707
2263.86917,-1372.7824078004405,712.6260020277906
2263.87612,-179.4395890866263,713.5174019446347
2263.88306,1388.8585837889261,713.4966743625641
2263.89001,1886.7724603246309,714.6690355154955
2263.89695,1414.6885676831473,722.9065410713063
2263.9039,862.4317542468222,707.1998171500551
2263.91084,-417.6571343100732,715.7087173656129
2263.91779,240.12824107177863,713.8103214011471
2263.92473,71.00757122184257,686.1039218904798
2263.93168,-2385.5163512456634,714.5238285531885
2263.93862,-2995.9282683663732,715.2454217399936
2263.94556,34.976883641420955,720.2599021716591
2263.95251,-31.458433528864354,671.3244725473483
2263.95945,-1358.0201555171589,680.510435814604
2263.9664,78.6964791796673,704.3884964719796
2263.97334,632.8016918302993,720.7688668105214
2263.98029,652.6211324753366,712.2735192447789
2263.98723,482.0077350528855,697.8065780620947
2263.99417,-2056.70515028535,707.5492249621002
2264.00112,144.11819480914374,710.0881259901064
2264.00806,2598.1445575249713,701.0069395113389
2264.01501,-634.887319360281,720.3417875096188
2264.02195,-684.3277275499789,701.9377446116797
2264.0289,-1919.4147576755977,671.1619546373781
2264.03584,-1166.0070101485169,704.5879140335478
2264.04279,-2237.634391973525,702.0264632184538
2264.04973,-1689.4557872534729,710.144386570012
2264.05668,-383.33556114795726,705.4006174712122
2264.06362,164.9078457380184,690.156961399953
2264.07056,-980.4849007145278,708.5409600427031
2264.07751,-885.0785737516491,694.0110388991124
2264.08445,-3744.5440722495123,707.4209872840157
2264.0914,-393.1837820511459,686.5161957756178
2264.09834,-1887.237919818708,718.1262139843492
2264.10529,-2700.794377206787,715.2573799604189
2264.11223,-1322.5409127300627,693.7339498486867
2264.11918,-864.0072782598057,699.302722269017
2264.12612,-3243.952807104495,677.4608618305316
2264.13307,-679.8701585266907,678.7584995783943
2264.14001,-838.4670249633168,712.7093679073267
2264.14695,-283.1051741777089,689.6476550976498
2264.1539,-3915.653906651333,696.5465232927114
2264.16084,-815.1281092154006,686.880295115614
2264.16779,108.78381732091385,673.438685918537
2264.17473,-1204.3975671140063,693.2197463703999
2264.18168,2737.6575847044346,693.3189426560228
2264.18862,-1744.1497263955284,676.7268548720468
2264.19557,845.5667912615228,682.7486730147747
2264.20251,-704.2910085035602,705.0980175505459
2264.20945,-1006.8163326519158,721.1885434035418
2264.2164,765.4421588996368,719.5266924278692
2264.22334,821.8897425951053,676.7659183921028
2264.23029,-517.3974620185124,688.0566423420204
2264.23723,-287.6131955024103,689.0002028774813
2264.24418,-94.56378491805819,717.6546045483391
2264.25112,-790.0969344455877,698.8671013820963
2264.25807,2957.2050450974334,705.7615279524283
2264.26501,-536.3303999226895,701.3614722749951
2264.27196,472.1614502425277,710.5434494687755
2264.2789,1038.7494505877567,706.4227605980393
2264.28584,290.37349444000444,709.9019194149129
2264.29279,470.14529427882627,693.9870085704482
2264.29973,-1570.718516689628,728.195263358058
2264.30668,-1759.9688575887772,721.9217531473315
2264.31362,-2734.1107765262987,720.9702204649203
2264.32057,-2184.3715670968413,710.7486753088359
2264.32751,-2549.4761948234923,732.5047782237
2264.33446,514.3298937598956,736.0477142161751
2264.3414,309.816991412434,710.3153321781867
2264.34835,479.3342186292349,713.2539794318378
2264.35529,-137.72612738448666,732.2551361363458
2264.36223,-2935.0570542160617,691.0439196920676
2264.36918,-1102.1346243349017,739.2452284700801
2264.37612,-656.6953551181347,730.345465278336
2264.38307,-851.1015112255943,736.5138570371336
2264.39001,-188.4437874034175,722.3762794113055
2264.39696,-168.94733259767625,729.5089592876346
2264.4039,1410.6911054266982,733.2780764778678
2264.41085,718.2150464789371,684.1980093303181
2264.41779,-209.77212769049763,722.9460601426166
2264.42473,-382.78377469119096,721.584189667898
2264.43168,-1468.1137965819878,729.8276173900148
2264.43862,-174.19790246688066,726.3544946272607
2264.44557,-1884.195520766891,729.5267257865522
2264.45251,-585.6107957343158,724.605519474204
2264.45946,-578.5141044070763,728.9276758871528
2264.4664,-906.5818457203786,707.8462443799013
2264.47335,1574.9584461011764,716.4173273416706
2264.48029,150.7273324064731,719.8753030252194
2264.48724,1707.907663033113,716.617769893561
2264.49418,831.2468792461628,716.6914553089434
2264.50112,-631.2712673914914,717.0025968156277
2264.50807,249.87373516712353,719.287186355923
2264.51501,-2098.33034893197,719.0226249649905
2264.52196,-343.55181455901646,711.4522742210964
2264.5289,-2562.3202346627463,716.8499871454385
2264.53585,109.16408873043744,713.8389072423541
2264.54279,-678.8974427109549,717.9072077188464
2264.54974,-1272.536304311919,685.2438411223686
2264.55668,-252.53745723880715,719.727818306641
2264.56363,-946.9343480503084,719.9186942821912
2264.57057,-2474.253066182206,717.9034494209983
2264.57751,-1914.708571555277,720.8277468101393
2264.58446,-87.93972801715087,722.4626063739946
2264.5914,-1278.5991220675332,715.8686158558709
2264.59835,-194.71604484819485,726.0792277818522
2264.60529,-1582.1422616057998,705.1458504322471
2264.61224,666.2332317293341,725.1610642288182
2264.61918,-1723.6603976310485,729.1240184777544
2264.62613,418.64579441970955,685.7861748906082
2264.63307,-1439.441742300026,722.6578100864606
2264.64001,146.70652314824125,721.4904599973266
2264.64696,-1920.514913954723,730.7241422584697
2264.6539,-306.34694362064624,734.2408840538228
2264.66085,-2995.2803605949507,734.5416617694718
2264.66779,-1263.6695685861114,676.4342770789751
2264.67474,-839.4047772202854,734.468887456598
2264.68168,184.1116088628744,677.9255241099138
2264.68863,-1085.5712362799466,713.1993132813222
2264.69557,518.5459067305933,702.8252723428623
2264.70251,-199.32212358038365,740.4088202613661
2264.70946,-356.2038395445845,713.4856272446474
2264.7164,797.9267216288034,688.7042084500024
2264.72335,-1357.540346158571,708.0702617092014
2264.73029,1237.4728659321815,716.6190226595103
2264.73724,2582.1164421938142,709.1321516829659
2264.74418,469.5164057722703,726.022853314133
2264.75113,-515.793352164322,708.7604218594602
2264.75807,-1567.3396930365132,711.0979692330675
2264.76501,3502.275537497236,725.8513382668905
2264.77196,-2691.6811882524053,724.9649494138437
2264.7789,-481.33864414813786,722.7993726387331
2264.78585,612.3084908801579,717.2085059825695
2264.79279,2350.97053297862,740.0701179037968
2264.79974,1237.5627234170913,678.6546338924148
2264.80668,-681.7908765026169,721.7519464172926
2264.81363,-637.7362230168358,704.4266488895269
2264.82057,1155.5013148975652,721.8771091244105
2264.82752,962.9099610994078,724.2497339445986
2264.83446,649.7625483546279,721.0218116444694
2264.8414,-275.56078985530957,721.6674416596207
2264.84835,-2232.7343687945017,729.5719392485411
2264.85529,-881.2595736990706,718.3766532863986
2264.86224,-834.7414129178691,726.2828591925226
2264.86918,-2040.8417167326213,713.3031789673018
2264.87613,480.30978164031,728.2757820422548
2264.88307,-2458.175409652144,721.2493594959903
2264.89002,-3593.686224408684,736.7433409814853
2264.89696,993.4624170712905,729.9753298842204
2264.9039,944.9788942912418,689.9050415563271
2264.91085,-198.88889433754795,716.152538175111
2264.91779,1379.0730011832031,721.0428808899806
2264.92474,-524.77864510406,723.2385240478748
2264.93168,-1176.4813862507358,724.9171165321426
2264.93863,771.3935943735761,693.922661955779
2264.94557,455.43873313638244,718.5378045426058
2264.95252,-1569.3112049772935,718.4538692240017
2264.95946,-1448.6310083138753,722.8502804914008
2264.96641,1134.5600792888235,739.7950788340156
2264.97335,-873.9057236887802,720.9202237147613
2264.98029,-4083.5939015379463,719.6605106088189
2264.98724,-2219.133886097489,720.8274051466984
2264.99418,-1494.4913530838733,717.0573768539567
2265.00113,-319.03609603343966,716.804659795636
2265.00807,-2.588783890351822,723.0928615343134
2265.01502,-371.5443002573818,686.0810304399514
2265.02196,880.2424416360406,727.91236602914
2265.02891,-1647.8185164986146,725.9089655005589
2265.03585,-325.37930558607343,694.2709308896883
2265.04279,-2020.8742219299377,724.104982533546
2265.04974,852.2405032491486,736.280842570561
2265.05668,1065.4691260816185,730.4439782370775
2265.06363,722.8175946889049,732.6654739286529
2265.07057,1521.4089655977266,722.0168494716659
2265.07752,-498.7667823715611,726.3185060781713
2265.08446,51.31955711366983,725.3197099531269
2265.09141,-2509.0636736158085,723.6760810276262
2265.09835,120.41973523377436,723.7546636189923
2265.1053,416.57907226678117,726.1677186129992
2265.11224,-2846.963691538399,715.9869452941743
2265.11918,204.3337568167096,717.5726053225658
2265.12613,-1785.81706353317,721.5013932274297
2265.13307,-82.586886891357,717.3643045115389
2265.14002,1007.1823680847426,719.3137222164858
2265.14696,-93.61122724532495,718.7458775780057
2265.15391,587.2259527064231,709.2575421657109
2265.16085,1097.9265835111544,705.7534419176645
2265.1678,2943.144683409209,720.0307598907481
2265.17474,-242.08642813837102,700.6653899584304
2265.18168,318.9220943320519,708.3418841445756
2265.18863,-7.112635621140091,705.2444772788023
2265.19557,1510.2067324789562,652.2283334063198
2265.20252,1458.0979328172182,709.9553327994792
2265.20946,678.0572923102192,706.3930358786965
2265.21641,-2263.3696212068526,698.5652986761249
2265.22335,-1938.142469739714,711.4733434666076
2265.2303,-425.83553209063905,714.9880352813163
2265.23724,-399.91318517960934,706.104102495659
2265.24419,-861.9338367258763,714.445359849636
2265.25113,1968.133686566304,706.2357568081508
2265.25807,-1466.29022491104,708.9105259977507
2265.26502,4.8475208969657775,716.6482918275988
2265.27196,615.9100790966236,698.2825152350206
2265.27891,-141.00848805950434,709.7759594931
2265.28585,-841.8579207246704,674.930616276357
2265.2928,1788.290365180558,709.5334923380009
2265.29974,-423.22123733004685,709.99200467545
2265.30669,1868.5586100753608,705.5494688435534
2265.31363,-1225.0433777343371,705.4074507400267
2265.32057,-1043.3402683529266,705.4171312041804
2265.32752,-1958.9763091402558,705.7236033105082
2265.33446,2535.9446142536913,710.7828416529081
2265.34141,-1758.8779262225512,702.4391926548462
2265.34835,519.2501889697351,700.3685983162565
2265.3553,-392.3365706059685,661.3243253008519
2265.36224,597.3912372826019,701.95209447619
2265.36919,-2947.925693823048,685.207624797652
2265.37613,1261.108801097899,697.4329121457582
2265.38308,426.01638593859485,699.2242535654644
2265.39002,-1528.3197920132131,692.738456470236
2265.39696,1333.4732317306627,716.8704869518818
2265.40391,-2736.9301832391375,696.20679594482
2265.41085,-959.9627722597387,694.1231045076692
2265.4178,782.9306576642542,705.5221357682957
2265.42474,-1143.212592037298,675.7649583986005
2265.43169,-1324.592146140345,657.6951762335013
2265.43863,-1460.3382199980333,687.9657598667883
2265.44558,-1443.1538016956586,690.0689261200603
2265.45252,1484.1971475027285,695.741792001997
2265.45946,-627.5424664872634,687.1611424638877
2265.46641,-183.36826310367647,693.6364618802673
2265.47335,-895.2144752719255,686.087522045325
2265.4803,-1522.619251392578,690.642237373592
2265.48724,820.6942622160185,675.5810295796784
2265.49419,-2783.5189544647546,673.8887705577816
2265.50113,-1104.6284257887326,681.6283585926468
2265.50808,-2373.447545753408,682.053160137278
2265.51502,1071.5259077831133,692.5011142667477
2265.52196,713.6097649614431,680.1864249849857
2265.52891,-2190.5605725498954,703.0823171380989
2265.53585,-1721.3045143194554,681.8007847423978
2265.5428,94.57209872844908,701.4659074000424
2265.54974,-1317.9190035917873,720.6692149736441
2265.55669,-3049.4448352917,709.5387311774252
2265.56363,-738.5293296739536,669.3342830051419
2265.57058,683.7587440333629,699.0148138763018
2265.57752,-940.4212178798223,684.0830965264219
2265.58447,227.50719357150274,693.1983354614479
2265.59141,-387.34612050296744,713.7264999703566
2265.59835,-181.10508447233295,686.1351271513989
2265.6053,217.37778365659977,666.9384250709846
2265.61224,1239.9343232469575,687.2659192523757
2265.61919,218.92643014557964,696.6831886690003
2265.62613,588.9660446100211,721.6898775588948
2265.63308,-2298.244575255125,679.868450209487
2265.64002,-276.9614960744566,687.0925820001161
2265.64697,650.9037042466401,687.3082855190253
2265.65391,755.5479273197644,694.294277891471
2265.66085,-2408.198475972699,674.5213034743718
2265.6678,-444.24037220327335,690.6254958649965
2265.67474,-2237.458776964994,695.019629376124
2265.68169,802.7210569168302,692.4207094703644
2265.68863,3664.0581877429695,706.557603769311
2265.69558,1.9416733336241552,708.4853827896789
2265.70252,-185.45901558526893,697.8998521814118
2265.70947,571.1878152476712,710.4320671871001
2265.71641,-1460.0795807734064,701.2880146352397
2265.72335,-249.06399281261227,701.2502038811332
2265.7303,-2683.932489192455,680.4640834744794
2265.73724,-1445.2015045837202,694.3581689548861
2265.74419,1711.8291621179083,704.3256303988867
2265.75113,782.3032496992747,731.5728342452236
2265.75808,3.996437266126919,690.4124117657996
2265.76502,-1958.0001766901125,698.1206806519318
2265.77197,-153.40255714732717,725.76273354793
2265.77891,61.89404060402005,703.8484404600115
2265.78585,188.0201247369222,717.3121438929219
2265.7928,-161.17505876031538,683.4154861632508
2265.79974,-1139.869415269832,715.9740759712405
2265.80669,-723.6169732523812,712.4379732475797
2265.81363,-1772.76028125816,694.4925565749033
2265.82058,-2648.8567509288505,726.1080413986864
2265.82752,516.1154269011096,700.2592660152254
2265.83447,239.0476734965882,677.909124264759
2265.84141,1968.040640222614,715.2174053378545
2265.84835,-1169.1542998766358,707.7182344774441
2265.8553,-538.6196588633413,714.0588246103657
2265.86224,-16.485374902656943,721.5614121051832
2265.86919,-185.03911121662142,728.7533136445708
2265.87613,-844.6384916930809,758.1216780187242
2265.88308,1240.2448953145738,727.4606869605053
2265.89002,-252.65533112585624,736.9007339398446
2265.89697,-2250.406796378041,734.0522858345441
2265.90391,401.53278377644585,743.047259238436
2265.91086,-3360.350480314088,730.306971197348
2265.9178,-2894.8146814018583,741.7247939472142
2265.92474,53.22319191755996,719.9575300266199
2265.93169,-2394.9483121902394,759.213406599645
2265.93863,-1939.0844358457853,782.9340742986614
2265.94558,-2203.578974631732,741.9047366926612
2265.95252,1272.2620624568326,746.3452225439133
2265.95947,-173.10161837341678,736.7385576933152
2265.96641,-1780.8118080144043,736.664530614492
2265.97336,-3139.5718926563536,747.3400325954826
2265.9803,-1694.6401883029907,744.5205119948299
2265.98724,1038.7718864870308,748.2599044657203
2265.99419,-1167.7376493635882,726.4954877404653
2266.00113,504.69270697525945,702.7512452640391
2266.00808,-1316.6563294026914,714.7772289383907
2266.01502,-545.3538452799751,736.3405197848739
2266.02197,785.8926519196879,740.1201146539559
2266.02891,1131.9658287834202,737.8325640305076
2266.03586,1046.3317595520762,771.394391588271
2266.0428,-194.7221947901276,734.375841112908
2266.04974,-1656.8412785290182,754.2510867865966
2266.05669,615.6711424637452,739.5835891642085
2266.06363,224.22916063340108,728.5433045163402
2266.07058,-3106.06837565914,700.2268079883568
2266.07752,-630.5445492530753,718.37733661328
2266.08447,184.07391199658127,700.6213153745773
2266.09141,-261.61351876596353,733.4017586434093
2266.09836,52.908178225214236,726.8720008521411
2266.1053,-3212.3574804237146,784.2778366110217
2266.4178,746.0394337644669,402.3352373108886
2266.42475,997.8928807949482,404.80751396795404
2266.43169,1550.6592283092039,401.5842610681813
2266.43864,1237.5464374597505,394.2646912897772
2266.44558,854.786351433783,389.7521144525327
2266.45252,471.7125044814188,389.05717101410386
2266.45947,822.0318745864457,394.4110371302199
2266.46641,389.9788650893586,411.4634594566622
2266.47336,1653.4935462490091,403.01674198731564
2266.4803,969.5669315784381,389.6680652461151
2266.48725,435.5838733813234,389.14714238682734
2266.49419,1022.2513202499794,411.6091219702233
2266.50114,1567.4107590321835,532.4524059826796
2266.50808,-587.3332350268098,528.5944562978586
2266.51502,-338.7300323079182,501.68549925783685
2266.52197,16.99866727843529,501.88776401474433
2266.52891,-300.7752101171632,497.09582037080264
2266.53586,-1464.2952520806637,505.74742201676884
2266.5428,708.9464006590266,503.9476528988581
2266.54975,-15.193089882032398,504.2805469779351
2266.55669,-447.9793091229093,505.6183871239894
2266.56364,1081.45498903394,503.64562241725974
2266.57058,-910.6357963323603,508.59302292673
2266.57752,-372.2619073707117,505.2339018653634
2266.58447,-126.32299616257158,437.60128211097407
2266.59836,-58.81565300311368,396.1424735599861
2266.6053,-174.87018223040835,394.12848146474266
2266.61225,-1062.1962180951275,397.97857289042696
2266.61919,-156.80541112910637,401.594510971403
2266.62614,-568.0695669120139,400.5223710944169
2266.63308,118.82530584373758,397.34911494480315
2266.67475,-699.2062592909197,403.10933277975136
2266.69558,507.9621983273434,421.6502688296065
2266.71641,-1063.2855550319632,410.71863315588786
2266.72336,-1623.4579131751254,417.8518824712848
2266.7303,155.4599404995425,430.2335377874282
2266.75114,239.1968665323701,369.99633709528325
2266.76503,-594.2393920419402,435.2144213140892
2266.77197,-1244.9775034076436,497.85716040454514
2266.77891,-1510.3249480294457,502.65138180475833
2266.78586,95.22137315363469,500.39298646158494
2266.7928,513.0773555862081,508.95962779862487
2266.79975,-1618.3246477539026,507.1067869595887
2266.80669,-149.57763492844296,509.1573370429894
2266.81364,-352.2411130712756,507.54525504184875
2266.82058,655.1336115305937,512.9543567475482
2266.82753,-23.17400619386092,514.3082550753164
2266.83447,-595.6898672356192,515.9574645036822
2266.84141,1171.265666052485,491.34847185878834
2266.84836,-1045.6753101946351,493.6937636037187
2266.8553,332.14640558082976,521.2510839664176
2266.86225,-228.62500246173195,523.6193810496899
2266.86919,1528.302253289923,496.5746697358878
2266.87614,-348.31596957644604,497.0616540267305
2266.88308,-687.1161567775258,501.291333535057
2266.89003,-619.8433086262171,501.0422608867706
2266.89697,-1545.9107898100476,503.1774296156568
2266.90391,-371.6264133709686,639.8825527514522
2266.91086,-669.8218367350524,538.9595000990463
2266.9178,-3539.3988647610877,542.8794047544516
2266.92475,-382.55394908339855,542.9209738064061
2266.93169,-1671.0623359221963,521.2444784732303
2266.93864,-2414.474263939697,472.78851654406634
2266.94558,-394.47082823234626,424.60224095744576
2266.95253,-1394.86753260872,441.0843131135092
2266.95947,-936.7804522554869,433.24541490520744
2266.96641,-825.7283313516186,571.0522887495182
2266.97336,-2787.5184667018484,526.3033751521895
2266.9803,-703.5478905199897,514.9479629241619
2266.98725,-1348.6959324442244,530.7894161288713
2266.99419,-1411.7297622864937,553.9851748951249
2267.00114,-673.1888160555554,552.0401988149073
2267.00808,-1254.3231373895298,529.6564601594366
2267.01502,-1020.5099755804322,527.318457234575
2267.02197,-1048.8066556288538,550.2478324048789
2267.02891,-52.533601206369156,527.0150600992138
2267.03586,-1740.7131616209313,537.1788641338161
2267.0428,109.0017985960945,578.3678724544471
2267.04975,-774.495670639706,544.9761932901633
2267.05669,-627.2705023884484,469.0332936670893
2267.06364,-2199.6918696666357,584.5512974046366
2267.07058,466.489039911845,544.8992051281873
2267.07752,-1125.2918890201674,545.38778384842
2267.08447,-1651.9845327191529,575.6868394351005
2267.09141,-1629.450917701019,539.7735701904737
2267.09836,-2047.4394655485928,589.0808435261035
2267.1053,972.9287859473305,545.9346731292026
2267.11225,-3115.1054875540544,547.4571254210604
2267.11919,-2014.2989090132398,602.180903170272
2267.12614,-271.2226891484604,604.3009248199529
2267.13308,1361.884255143913,602.9609208054407
2267.14002,-220.76514889573266,440.2158046471935
2267.14697,299.9834620371963,479.86698582113416
2268.61225,-105784.72057968599,642.1709005895956
2268.64003,-21586.998189307997,724.1304934037867
2268.65392,-37693.828335582926,889.1843433188069
2268.68169,-1535.1428109244346,953.0913510277485
2268.68864,-3958.02245105715,651.4888598327835
2268.69558,-6316.554451530205,783.1880441229316
2268.70253,-7301.897350820549,944.0837360765498
2268.70947,-630.930173389837,734.092146569295
2268.71642,154.84278243778456,751.4479660310986
2268.74419,906.2557849101162,520.846440564789
2268.75114,-540.3383398579875,616.6961327859118
2268.75808,-79.31010671920433,808.618281791508
2268.76503,5938.687441526633,761.5360346696742
2268.77197,1765.811188537312,606.4269825237533
2268.77892,3641.691987810789,617.4956252372016
2268.78586,-385.0464977712803,453.8060374409847
2268.7928,-179.3336734200025,576.6344999318502
2268.79975,2219.6232620324167,647.8232666650891
2268.80669,960.383587730895,623.2336349485028
2268.81364,1616.3043918289122,499.99016526497354
2268.82058,85.16029592687603,591.3510832018887
2268.82753,-215.6038670723703,412.000098834223
2268.83447,-3853.0325784698284,386.7878424408274
2268.84142,4070.581763285857,937.861930933186
2268.84836,252.06584780279695,530.8035382177545
2268.85531,1139.7810383264987,525.585881926673
2268.86225,1430.4198913721307,479.05747124224985
2268.87614,2111.6165012635183,533.8542510799625
2268.88308,4763.877245052284,935.7525008501674
2268.89003,1103.6792847504066,584.920977247498
2268.89697,2972.635249407327,656.1453908663856
2268.90392,631.3056615111907,417.77534986056304
2268.91086,-1111.0505595961736,625.5160606203402
2268.93169,-1425.6482197590053,615.2372298940281
2268.93864,2972.9622213200983,897.8271756031279
2268.94558,246.49593650433093,541.1920429085384
2268.95947,1669.5183588335728,726.3761333118397
2268.96642,-889.5084680362389,385.3997777689869
2268.97336,-77.67513326753539,326.6271743594042
2268.98031,-811.61398683976,311.94988238504874
2268.99419,23.98944293905118,310.5990590282469
2269.00114,-593.4011777340352,326.3596518853188
2269.00808,-1091.8819878057118,353.7739291541686
2269.02197,550.7399416473323,407.02582080074933
2269.02892,177.10033339581534,371.52311712405697
2269.04975,1746.7743849471558,593.7171025288895
2269.0567,1092.1710350765627,380.75771048770866
2269.08447,-570.6750923109611,424.2848356210149
2269.10531,-370.0361978300342,315.5560261140573
2269.1192,-436.13953202375126,361.8703277089613
2269.12614,-565.6405676241066,314.92702371968795
2269.16086,-3011.027856353461,321.20884774080525
2269.16781,1224.5992152613983,306.85419994230506
2269.17475,1750.638370686096,350.7588631776093
2269.1817,-1422.988939312051,371.49179797532406
2269.19559,1675.8795626607514,372.29539038790256
2269.21642,-3411.6692402130634,381.59683589812227
2269.22336,1443.6079862961917,332.28534871339
2269.23031,1104.026528693994,305.3300393332436
2269.25114,-530.3752061509026,330.3557474880049
2269.27892,1294.5101607263366,322.0969449110557
2269.29975,-1475.8483735530556,310.30579790829375
2269.31364,-2924.589169719216,474.2536832656965
2269.32059,105.56944767059977,466.30101113163425
2269.32753,534.8755969920945,451.1112239961956
2269.3692,-3090.65229343813,496.8193007594449
2269.38309,218.67952136575093,305.8416233918182
2269.40392,-519.5849052538293,310.60965059490934
2269.41781,-313.6086583897549,350.38428615876427
2269.4317,800.1495839741417,312.73798605498115
2269.44559,85.70399634887853,364.2274637865034
2269.45253,-742.1193013334348,405.52443775440264
2269.45948,-2261.8862324350507,326.22253095777563
2269.46642,-3914.3214192325163,388.07796359299414
2269.48725,650.1948664949551,383.36289422321505
2269.4942,-996.6221205710891,337.6632451581702
2269.50114,-1457.0238568474015,312.0838144538118
2269.51503,-1544.1770756240096,369.0994705633876
2269.52892,1430.8792009242748,363.4775125341183
2269.53587,-1740.9669036695743,328.7407044037114
2269.54975,-2283.501570012337,400.0094203820794
2269.5567,-2981.729760760283,405.073555900463
2269.56364,-2110.818831017246,401.1989785948603
2269.57753,-3610.6993554394426,332.958881242867
2269.58448,-2113.0175491461064,353.84157851543165
2269.59142,1087.6283918565348,309.11772023708926
2269.59837,366.82558647756815,382.92044006747983
2269.60531,-3238.1375814555904,581.6293916595807
2269.61225,-2754.1528678468726,420.52915719278354
2269.6192,-896.1664635055911,383.2537896978111
2269.62614,-821.7019415905218,399.5326859944584
2269.63309,-4008.1051865154054,368.13939629495843
2269.64003,1231.506625042478,348.7650292253684
2269.64698,-437.6082292676021,354.96713177698393
2269.65392,439.1046012501515,493.85502874773954
2269.66087,-1430.6125895526977,712.5474194364244
2269.68864,-5395.542450390927,418.20800966433086
2269.70253,-1334.1485864651568,330.1739825375408
2269.71642,823.438730747526,379.65607366700686
2269.72337,-1391.1370233872883,395.13650250268654
2269.75809,-1079.4816548881422,388.9092307442712
2269.76503,-3102.162593092618,487.5129580732415
2269.77198,392.1561723092672,399.9175129165251
2269.78587,-5316.069484098312,432.58179061551147
2269.79281,-3065.7466230388754,347.9085928672916
2269.81364,-1788.62405647433,396.41933483478465
2269.82059,-2897.1278567833606,404.619826851184
2269.82753,-739.6444052566571,338.78720399033244
2269.83448,753.4632108922913,340.91770331886215
2269.84142,-2466.278641475751,314.76200027781914
2269.84837,-3614.7830307707673,423.39503013356085
2269.86225,-77.44940762103158,388.42122146310635
2269.8692,-1670.5124855582608,689.6505022929892
2269.87614,-2465.7106829494574,353.9113917451525
2269.88309,-879.8143373448157,318.67985495257994
2269.89003,-593.7742742113039,329.8634104699243
2269.89698,-2751.249184151989,324.14180060377777
2269.90392,-2546.136890241687,324.88366582139906
2269.91087,-1167.5722842582786,341.98266826359315
2269.91781,-628.1628134078011,389.7384479149038
2269.92476,1165.952457885815,529.4488426752912
2269.9317,-2560.4566883692337,391.74515119007856
2269.96642,-67.16454084059997,353.6180167373858
2269.97337,1705.6202262974782,436.4365514415523
2269.98031,-88.90037172464777,493.2462983841863
2270.00809,-754.0481387028077,363.76359872181627
2270.02198,-548.9800332641726,322.3903199188224
2270.02892,-1754.104432404409,315.39157211125644
2270.03587,-234.68326470480332,438.4376742138619
2270.04281,511.30218623602957,340.90563121062337
2270.04976,-2096.4098587316707,328.34596924186377
2270.06364,-2556.802483982897,352.13827237561816
2270.07059,-2699.4370622446113,343.87263652985445
2270.07753,-403.2446315022774,319.2664910802999
2270.08448,-299.76901128423634,357.88812641953115
2270.09142,-1125.5943750530203,326.4024737032226
2270.09837,39.98783355086564,329.992900913958
2270.10531,-2618.9869385115308,342.43730841538076
2270.11226,-2889.64941350502,367.70388929585124
2270.12615,-1909.3166669094276,353.9162889211362
2270.13309,-1010.4028876769896,572.9356515225923
2270.14003,-818.7728609132108,471.9500744605342
2270.15392,720.9158959778455,356.1136403962339
2270.18865,-1568.768529545613,504.9323269350194
2270.20253,-18.926901850057455,334.28795202727616
2270.20948,-243.9057859602163,350.06038921695966
2270.21642,-2264.056136947077,350.0568586947388
2270.22337,-3130.9164188247264,433.43629088075755
2270.23031,867.5592113895531,330.0098701981806
2270.2442,229.61445978606343,497.5833741007132
2270.25115,-605.8796376917165,424.5071446331114
2270.25809,-1851.391047169395,322.52983249045064
2270.26503,-2282.5547067302823,429.5963354704814
2270.27892,-2279.987789300137,303.98194928396754
2270.28587,938.7590252407088,640.163058436285
2270.29281,2240.7871483166955,549.042216010384
2270.29976,753.6590979316388,393.46280719440233
2270.3067,-963.2384135537557,543.9808137995262
2270.31365,-1982.264317035504,315.6191199627774
2270.32059,-3557.9453813138075,357.18737470261004
2270.32753,-2370.305267089087,308.77093184475626
2270.34142,-1095.5661446870188,387.25626301805744
2270.34837,-1643.9335754019762,455.7884826118682
2270.35531,-2364.9365955572057,309.0301405084508
2270.36226,156.80939720258138,344.336387706728
2270.3692,-1715.5896238343096,343.039091622306
2270.38309,-1918.878573849291,320.22314871432184
2270.40392,-1213.43274291609,434.22769729728367
2270.42476,966.7641524863809,369.20595566907934
2270.4317,-2760.6638341489015,325.15335216394243
2270.45254,514.8726830793895,385.51161560191656
2270.45948,-1059.1621328537012,463.30188944897526
2270.46642,-297.4380694038163,311.4198485006751
2270.47337,1127.7116633951755,338.51785931122987
2270.48031,-991.5258686892774,305.0810805727707
2270.4942,-3710.4588163005624,346.4575482345446
2270.50115,-2590.378433629544,340.79493225582934
2270.51504,-1385.4741796329463,348.5104899620304
2270.52198,-2443.6492468064007,310.4671769401281
2270.52892,-3002.442879078436,343.3054752182557
2270.54281,-606.723090839046,320.5497789636523
2270.5567,-2283.203753379841,480.97226705187035
2270.57059,-1769.1847733510026,323.558581110465
2270.57754,53.072860003642276,613.2050157486128
2270.58448,-2631.5944333619914,843.226738356017
2270.59143,423.16383787200556,742.2604083344529
2270.59837,-383.61686404748497,492.48017506227364
2270.60531,-2279.739855529986,552.7084925049597
2270.61226,-1116.1308671840845,467.8635519338702
2270.64004,333.12515745068515,409.4470757173336
2270.64698,1159.6969419496334,605.2296799396494
2270.65393,2137.427807556314,378.86432558704007
2270.66087,-2123.782566948566,512.1648864238529
2270.66781,399.35240158557076,396.2178672925722
2270.68865,-3499.1751695483094,365.6091507407837
2270.69559,-4375.272778097136,403.2494147904475
2270.70254,20.063388341712965,473.56796474016716
2270.70948,-619.6776018574667,362.04571494186536
2270.71643,26.106731281206198,425.51607677356395
2270.73726,-2601.408354486377,321.3947126525581
2270.7442,1198.0873850273092,656.371230400703
2270.75809,-4060.3244573563097,519.3826404969218
2270.76504,841.9721502016853,480.7107806319043
2270.77893,-2075.8422890392653,333.89891125610717
2270.78587,-52.09627200224486,495.38556707436123
2270.79281,1536.0872825624044,763.9634395281914
2270.79976,360.0655475272534,619.9439854534164
2270.8067,1778.559562613164,382.7580360453232
2270.81365,-1131.5708658459457,398.40736050853326
2270.82059,-2390.014805994025,410.9903694790755
2270.83448,-5177.096512930817,439.4394314220592
2270.84143,1415.903408990542,642.3713431414858
2270.84837,1677.263071820049,475.59585114866667
2270.85531,-459.0217576392355,547.8566438710782
2270.8692,291.2298169102677,499.24989447674216
2270.89004,173.6387133022321,556.9772355333423
2270.89698,2776.100188400728,767.244775212887
2270.90393,-4179.495754377686,684.3008500259754
2270.91087,-67.15531592770046,311.51745035690806
2270.92476,-148.98439330753575,576.6474831425976
2270.94559,644.3008304790575,315.3921415503243
2270.95254,-326.4304901053618,489.37627659112655
2270.95948,-647.4540423734821,393.21065957514935
2270.96643,-1963.9909034597345,323.84876725945173
2270.97337,26.372203774647346,407.5510713969528
2270.98726,-1080.4108655590928,311.32008277598425
2270.9942,-1010.5718971923335,528.0931221425056
2271.00115,-996.5338575155693,694.6697660128247
2271.00809,-1760.5338550319182,500.1496082039772
2271.01504,-5541.14585617689,488.65901114123716
2271.02198,-3584.8998934792594,396.62854674832016
2271.02893,-4008.9534229509054,386.64366046884265
2271.04281,-489.07595442673176,418.2701924105423
2271.04976,1003.2772688451022,582.9895538170956
2271.0567,-444.22283347998285,371.3222190209123
2271.06365,-1445.1766770403608,385.40888879407277
2271.07059,-3858.7609077169764,391.22377277953655
2271.07754,2164.1985047906564,449.16807012099514
2271.10531,3913.27285413294,604.0558382451417
2271.11226,1465.5414125367906,724.4522264771333
2271.1192,-927.588111270671,498.18629618577415
2271.13309,-3532.280306973642,329.22028598667174
2271.14004,-405.13323311477586,379.46098384235455
2271.15393,-780.989325994071,305.5877674553617
2271.16087,-112.05296700955678,310.38608881686343
2271.16782,197.18251322676804,726.3738555555682
2271.17476,-922.2411923111831,477.2420994938795
2271.18865,-2913.583165303234,342.2672739097147
2271.19559,364.42893132871586,361.3864183890852
2271.22337,1368.5292674025177,671.3718498777952
2271.23032,-500.57349864609984,471.7972370147179
2271.23726,-402.1366169640153,352.90052351186927
2271.2442,-1621.8218008453205,388.0448222392441
2271.26504,-1917.736392966957,346.63680765311017
2271.27198,645.1055617697717,536.0260916848196
2271.27893,-324.2029583596669,369.1317008146291
2271.28587,-254.7838943615551,389.20659182551304
2271.29976,455.50456029262807,362.2193938575658
2271.32059,-1917.869527821025,329.2221081916889
2271.32754,-2769.1362902641154,525.6888365101439
2271.33448,-1158.7762728647006,619.622707931324
2271.34143,-826.3508421406143,379.56314121113047
2271.34837,810.8166582569279,506.9547467284673
2271.35532,-579.9993153838954,572.9397514838809
2271.36226,-1580.1220056808102,338.13371571604455
2271.38309,-1859.231539807087,355.24365138834173
2271.39004,94.06062855768798,400.4446996055594
2271.41087,-2037.081938343101,421.1318515022174
2271.42476,33.94289618198212,348.0091558066775
2271.4317,-1464.8681077829408,367.183649763445
2271.43865,-1915.8643050874266,372.1759220714634
2271.45948,-362.8873458841776,419.7394590934611
2271.49421,1193.0935182899007,365.18400753271186
2271.50115,204.9586592497905,437.37635367916533
2271.50809,264.2907934874623,500.20598267169635
2271.51504,-1767.4174622599605,327.6837116059307
2271.53587,-1963.147222536778,366.89653858542476
2271.54282,539.9742405179911,407.5147411844227
2271.54976,1316.0807403928884,367.15005285844063
2271.56365,1563.9298918981062,370.5096294710615
2271.57059,-3079.8924005872805,318.142418360324
2271.58448,-2469.795838822358,351.45232607446167
2271.59143,-182.1105999783783,373.68550504038745
2271.60532,-748.8886790844625,556.1203436240112
2271.61226,1077.4528573771343,404.24923590581403
2271.63309,728.1814829326155,421.41110442110096
2271.64004,1485.2851177858013,609.7054710131094
2271.64698,-85.87596694737542,575.2565712754177
2271.66087,800.2939937217537,377.31362911741587
2271.66782,1439.9163128191892,319.92909037967365
2271.68865,-1297.034484114205,480.1341666317789
2271.69559,86.20202775763791,591.214076162159
2271.70254,-287.7363082288838,307.7555080989301
2271.70948,-1095.693585150408,365.66450021818076
2271.71643,1830.2544939603738,395.53795704553505
2271.72337,-2173.0461073637834,339.7365728042858
2271.73726,-25.176040068679125,497.5559271376418
2271.74421,-492.3322347924408,472.86482137916096
2271.75115,359.01447689577856,481.08011881132495
2271.76504,-2376.1748172250664,379.54412194626354
2271.79976,949.2291874938254,415.1129944426425
2271.80671,-91.3424681111164,347.3635257915262
2271.82059,-1999.8167068635364,415.2478376139142
2271.84143,-255.85740089230418,374.18467532728243
2271.84837,-2216.1083424420804,369.3102769063132
2271.85532,3613.0148085772166,333.01320572994183
2271.86921,663.2071186348581,459.67160150348894
2271.89698,-1290.1652267506727,394.33006289476873
2271.90393,409.5159778445459,515.4708218762803
2271.91087,1129.4933243507276,378.2423842371122
2271.91782,-348.1392156897789,396.6664713902403
2271.9456,-2799.543083722437,320.9644444928754
2271.95254,-1182.0788584000863,412.24188266244073
2271.97337,529.4054514183194,405.8222543868988
2271.98032,-1519.8303666137765,307.15702763859844
2272.03587,-2062.479376321368,671.8602008224007
2272.04282,-290.4660852324403,670.4922942935627
2272.04976,-422.7316336194919,671.6750192375292
2272.05671,-3427.451471754714,678.28962344991
2272.06365,-1215.3270389192671,661.2497287829609
2272.0706,-913.4693251340826,658.1173583584202
2272.07754,607.8106055708645,598.7852241207482
2272.08448,1799.1663097134387,657.1047818079334
2272.09143,-1433.8795753728832,658.8019380058138
2272.09837,31.99814787739198,674.170756784191
2272.10532,-972.0084585258385,670.1755722840134
2272.11226,-1783.0938920228011,667.904307617906
2272.11921,-2346.3757291399756,670.1928832316765
2272.12615,-2678.193910042085,680.2907462222196
2272.1331,-1808.4952021867298,679.3570939265396
2272.14004,-3108.186005664736,678.9136147804822
2272.14698,-325.8331485231658,682.1521286472738
2272.15393,172.81496274665102,657.4569229275044
2272.16087,-1629.5962385511393,676.8234317379577
2272.16782,-2900.760194709491,674.9119386749309
2272.17476,-1013.2380109081021,674.9355134523406
2272.18171,303.04385536355824,675.2145385955971
2272.18865,-89.66797558813697,665.4327142877221
2272.1956,-2103.0265129246955,673.8526681208787
2272.20254,638.3378923359475,664.0251747997604
2272.20948,1223.4142125611602,661.8535619705306
2272.21643,-23.82578615094518,667.3714265381931
2272.22337,-859.7121132586739,665.3454762225244
2272.23032,-91.21206656457396,658.3656337920116
2272.23726,-2281.9402819760508,655.8602157811962
2272.24421,-1124.3378508058577,659.0785715049852
2272.25115,-2397.0437340721883,672.993270679649
2272.2581,138.43838177057876,672.8423693266633
2272.26504,-964.0260616724336,672.5417054988277
2272.27198,-1329.432605992869,665.3248625282675
2272.27893,-1724.4204848988418,645.2301550378216
2272.28587,-46.077756606110746,661.2714813553536
2272.29282,-1834.6905381868967,677.8857772629764
2272.29976,19.296012253850993,662.3727765126146
2272.30671,-115.784387333497,637.4627783764444
2272.31365,-478.64291960084034,666.7342242212463
2272.3206,-3013.7956718867513,672.4016234881317
2272.32754,-976.6036040279242,668.9781558120958
2272.33448,-3261.76531669873,673.5203434808697
2272.34143,-2370.239439932841,641.4921292206942
2272.34837,-2297.2719733272024,659.9228218670096
2272.35532,-399.2348693619622,643.2057991515429
2272.36226,-1774.2165647303311,619.5694084345713
2272.36921,-1150.5943445619137,666.469890605941
2272.37615,-751.2083460713387,605.1354947178236
2272.3831,-1963.5853489555973,659.6605382323486
2272.39004,608.002164873296,584.9675573632497
2272.39698,-1780.2192497203785,666.7152049563795
2272.40393,659.2590836895001,666.1229883257944
2272.41087,504.1476398994942,674.9569243612926
2272.41782,-323.1477877669035,602.8988519470429
2272.42476,-1719.686282376382,652.2179696152846
2272.43171,-779.8565978002633,644.0090499006808
2272.43865,-360.8156126674519,675.178208383067
2272.4456,-1664.3750712847552,681.2265623863575
2272.45254,-2108.5160194267783,681.9361973527375
2272.45948,-451.00371390018176,669.7476957684156
2272.46643,-995.3640018945366,667.4714200385112
2272.47337,-750.3845955157577,645.7136088064434
2272.48032,-1216.3521431292472,649.8932915646111
2272.48726,-1339.3500706867108,664.377657582772
2272.49421,-76.83600785712153,633.6265812640162
2272.50115,-2138.5046168336557,609.0113247893756
2272.5081,571.7889151277153,598.1378857883934
2272.51504,-2070.15769271253,618.6854112256095
2272.52198,376.46630378442495,610.0554482642225
2272.52893,1767.4816949868164,606.967721862603
2272.53587,-473.92933077263757,607.2796605839821
2272.54282,657.4220732565507,600.7475111486291
2272.54976,647.5911633010253,691.457446343155
2272.55671,-648.7982602370967,632.4576367454921
2272.56365,344.4212341278407,700.2569882589538
2272.5706,-1896.4113554264707,689.6383162969368
2272.57754,-851.9639836377906,634.6579493037427
2272.58448,1521.4504207618675,675.720428263493
2272.59143,512.0286765988184,673.6683976385159
2272.59837,453.2183763229425,650.7682916363004
2272.60532,-1751.9897634819656,682.1627202139363
2272.61226,-278.57460306591946,680.930454071065
2272.61921,-896.3615533302434,621.5351120968594
2272.62615,-143.05266042534504,639.8588640862288
2272.63309,-1429.2901242614757,654.0056666249563
2272.64004,85.48988725935946,647.520666744423
2272.64698,-163.83889471981232,651.1679239741319
2272.65393,-2193.4856671537314,656.981099642392
2272.66087,-521.01727228515,651.150726914282
2272.66782,-1034.8462874409472,679.965254851025
2272.67476,410.5198989212012,664.729001487648
2272.68171,-1149.860109827802,671.2145708072494
2272.68865,-2957.554680685106,674.8682057545185
2272.69559,-693.4902299276382,664.4611373501219
2272.70254,-949.0707695451437,643.5158017800915
2272.70948,-3315.454765325062,675.6507289215857
2272.71643,-721.4603936145429,666.3194448042096
2272.72337,-86.67249831551254,663.5451376655458
2272.73032,-1591.6073639041254,640.980431274306
2272.73726,-294.14295329367815,669.7529346078401
2272.74421,614.0992628607962,654.9410272378401
2272.75115,-902.782889922989,659.004316650535
2272.75809,-1452.0640425662516,668.2837818127348
2272.76504,-1098.3204075704934,669.2358839342138
2272.77198,-1984.3313808518733,665.5083357959352
2272.77893,-984.9974775517724,668.3915196843759
2272.78587,150.1350018880744,658.3826030762342
2272.79282,-2466.3696378387967,668.8976371278989
2272.79976,-1970.2230723941336,667.0394435616248
2272.80671,357.42278081326754,658.289328956917
2272.81365,-390.97367514092804,657.2223140315418
2272.82059,-1637.5064305307385,664.2614920129266
2272.82754,-583.4405495588488,672.9039826338069
2272.83448,-2877.6700099464206,672.8010280503358
2272.84143,-2320.6013224987787,678.8088379919941
2272.84837,-1379.9060905394974,687.8615525173681
2272.85532,-97.62770876664065,674.4380514826493
2272.86226,630.8343937386212,663.8234794819208
2272.86921,-2407.569473578329,684.1058740891366
2272.87615,-1832.8083142919581,682.7551646201484
2272.88309,-2805.4272114985542,691.3823942740098
2272.89004,-214.27536572702897,679.8380421632628
2272.89698,-1844.196298434668,680.8835322918725
2272.90393,159.07827022460359,676.6723026093449
2272.91087,-1578.024192154776,665.5374910762102
2272.91782,-1027.700168802616,598.2199989019803
2272.92476,192.50878513331625,620.6220734954363
2272.93171,-813.9374121244839,655.4119533469687
2272.93865,-546.3602718885289,611.9066946738686
2272.94559,-1783.9351813016724,664.2829029218784
2272.95254,-2077.282172666282,663.3804558871177
2272.95948,648.5186656547723,672.1663312652877
2272.96643,609.8578529076716,663.155527455309
2272.97337,-502.08467604441387,666.9951412021445
2272.98032,-1167.5837869274494,654.2171562947634
2272.98726,-1469.8270109615823,638.4336719871632
2272.99421,-412.9746368549762,668.9214396809358
2273.00115,-1343.4468431165965,667.3713126503795
2273.00809,796.3681669000425,654.4197627151116
2273.01504,2318.448615046602,661.0757082038198
2273.02198,-201.75704503459684,669.5356366595407
2273.02893,-2046.0838589036207,648.519007318213
2273.03587,-387.0617426324731,651.7281381291026
2273.04282,-2451.9572489188145,666.2833423673067
2273.04976,-278.59886117021074,665.2240718132545
2273.05671,562.845874566813,662.6490683483452
2273.06365,-922.0844826797053,652.4966530951002
2273.07059,-2098.936687651438,662.5290305928381
2273.07754,366.2183366555914,665.2236162620001
2273.08448,-2801.5684645990377,665.6263235707979
2273.09143,-2692.8166497537386,667.3062827088288
2273.09837,-2734.0083913818953,668.0643199959777
2273.10532,-150.77379863441118,658.9653670182926
2273.11226,-485.08714764411434,661.8326066128328
2273.11921,-692.4121678843461,662.3399768223053
2273.12615,-1543.0418418983033,658.1157639290302
2273.13309,432.6508066305374,662.8847022346299
2273.14004,64.84589884404595,656.7108438607808
2273.14698,-448.378827572927,648.7815187285012
2273.15393,-1057.0447306237324,660.9051042590859
2273.16087,-2343.466464942227,660.0186015182254
2273.16782,-1898.9856755644987,667.7042067294566
2273.17476,-1860.7125369348037,665.224982915763
2273.18171,-691.7753072308401,670.931559590518
2273.18865,-936.7255583293442,614.1509679281588
2273.19559,-1519.4789088210873,599.0013831909118
2273.20254,-741.6105644701993,603.2500819641052
2273.20948,1143.6960458059202,610.6661147206066
2273.21643,-1581.4821678383248,611.4624183131164
2273.22337,-1523.879306161961,646.1763349929948
2273.23032,-1646.1367351555662,646.3861163455982
2273.23726,-392.01950693297846,643.7391357825102
2273.24421,-1331.0728182839623,645.1207088489771
2273.25115,-2039.9710443978477,651.166557320369
2273.25809,-3966.2031265939877,670.5614241964022
2273.26504,-573.48652687685,658.3748587049112
2273.27198,-1533.3848386341053,673.5504098636532
2273.27893,-1914.3162280375143,670.0083849736867
2273.28587,-943.2671604532238,667.1536730386396
2273.29282,-1666.490309646266,670.4747555702724
2273.29976,-2168.030829717423,677.6650626802699
2273.30671,-625.9311817008177,673.7907131502944
2273.31365,-1307.2107019204873,678.6083954401038
2273.32059,-2494.7210979255474,683.1994409809008
2273.32754,-2436.6566489407683,676.0943219554566
2273.33448,-730.5570688359567,673.9312507122447
2273.34143,-2203.5047197772815,669.4383764667485
2273.34837,-1176.0660373946312,670.7932997848391
2273.35532,-1082.7139049251873,665.3625593945605
2273.36226,-365.1110054442109,667.2978550106243
2273.36921,-700.0382097690781,657.9694180885875
2273.37615,-385.7756075537813,674.6127553886718
2273.38309,78.98438757238262,668.6695198373101
2273.39004,-1560.3144093683845,662.9805957736593
2273.39698,-1876.3114090966008,670.6057265558825
2273.40393,793.9347259874061,669.416054455288
2273.41087,1012.7266546251545,657.3221936440461
2273.41782,256.4489341960078,651.5503592521135
2273.42476,-1232.4479078216673,639.0988907062492
2273.43171,-361.04395773366804,630.0192986568718
2273.43865,1653.3071118981886,634.6710464023037
2273.44559,-674.9817519046517,636.8765977999789
2273.45254,-1814.086979945402,605.4811442320209
2273.45948,-821.2167795046962,659.3196720063215
2273.46643,736.3000896110551,654.0848186553903
2273.47337,1571.2476394714934,643.5375543524841
2273.48032,-1407.2989568993953,673.3898280465138
2273.48726,368.4246852679613,655.3320041018397
2273.49421,-2000.0768266297398,627.3435044769494
2273.50115,-143.17725369339485,635.1797832655391
2273.50809,-1521.0988490813647,630.3915979194453
2273.51504,-1310.5864506026355,645.1401836650982
2273.52198,-133.21651163039505,633.1016723312534
2273.52893,-911.6935863448363,643.992650055526
2273.53587,1093.385079169262,636.5903977244673
2273.54282,1157.4928710935346,662.7800393339554
2273.54976,1111.924420789727,627.5593218836724
2273.55671,72.8103014229063,648.4195832569628
2273.56365,-17.18942936617184,672.0052938968939
2273.57059,-1947.0861936274976,660.087959196692
2273.57754,-1538.3913469188208,663.5387599479857
2273.58448,-3206.006754275385,660.7150254982307
2273.59143,-1534.2571053982695,664.8415226474593
2273.59837,-1095.6399439902148,657.501111399171
2273.60532,-2822.3796403246783,666.3823108773025
2273.61226,362.697381011136,664.5070341389923
2273.61921,-570.3185095666606,646.1833960374364
2273.62615,-793.9874560450907,663.4366025792098
2273.63309,-1918.8554546231355,659.3183053525586
2273.64004,-1011.5162549424896,660.1129006278647
2273.64698,-962.3183139078908,641.0376029567202
2273.65393,930.0390909065982,666.8073401975608
2273.66087,63.88696345375235,653.6764169559137
2273.66782,-696.5462955170842,657.9481210674492
2273.67476,-2596.527806123474,669.0302025428991
2273.68171,-398.9395582613646,621.8828115917009
2273.68865,-219.21228855765048,627.4600117102357
2273.69559,-926.1672469085213,636.9087141634067
2273.70254,-395.76299936515744,626.1329909064709
2273.70948,-122.3827055885367,628.8519485677378
2273.71643,15.885983339816864,631.8967392636399
2273.72337,-1229.024781809072,625.4890692085232
2273.73032,-2422.0388064050985,637.4331675449152
2273.73726,-2298.051535411117,628.0744364644677
2273.74421,-1904.1877292251206,642.9388461165254
2273.75115,-1673.1741576493,646.9121641564968
2273.75809,-1975.173433986757,658.0610977785146
2273.76504,-1809.6359025274876,666.7761349366415
2273.77198,-403.2251566861562,659.3298080217296
2273.77893,-882.204842551735,662.405803978551
2273.78587,14.97510860685162,671.9947023302317
2273.79282,-1183.9739516179588,589.8673527666459
2273.79976,-1949.6164391816728,681.4404437002496
2273.80671,-2271.8917324087847,675.1093062558547
2273.81365,-625.5515936181754,600.4362557541313
2273.82059,-3125.779167330028,671.2742480215622
2273.82754,-945.2760275968567,669.6827797146784
2273.83448,22.813779039526192,586.1144076459403
2273.84143,-1724.7545178560545,624.4850342440544
2273.84837,-1708.324606318608,648.0880558316488
2273.85532,-261.33847969618233,599.1529678707789
2273.86226,-2063.9781399480025,638.2401765919009
2273.86921,5.375163137254348,591.0550887744097
2273.87615,-259.00981557203374,626.5412787181339
2273.88309,-672.5224584583339,673.8548319893365
2273.89004,-2713.3220366999326,651.9749330211175
2273.89698,-1768.2699125445622,673.8033546976011
2273.90393,-421.4929897590608,662.1880504789974
2273.91087,-1867.3123357314196,676.5204901538507
2273.91782,-1102.3359779893008,651.7464740670879
2273.92476,-2690.3516619167417,676.0440974296705
2273.93171,-2688.7531325654163,650.4271976346463
2273.93865,-2821.0941885728676,669.0649383260393
2273.94559,-2319.047664946001,668.3950502065967
2273.95254,-1018.9116740047339,676.9632859730267
2273.95948,275.66545275598406,681.5150402181406
2273.96643,555.0135818516986,675.3190876084581
2273.97337,-1302.4603273285,665.0640594351829
2273.98032,97.2090571639426,684.0392497181958
2273.98726,-1322.9162869636027,674.1000324519614
2273.9942,-3087.5142286229107,655.2723268875269
2274.00115,-1061.7254058738122,592.7429061715771
2274.00809,-2494.4721391650746,635.0491539433697
2274.01504,265.7149605962059,623.6024036888556
2274.02198,994.0030425223267,583.0836251511079
2274.02893,-2744.357149225742,632.1579979079788
2274.03587,176.84101084430725,638.8534624679971
2274.04282,-1579.3106688969085,601.4907430200134
2274.04976,-411.50912846990525,593.1544967298337
2274.0567,-2545.814929392713,625.215624568132
2274.06365,-609.6735824253086,585.9418676083757
2274.07059,-1672.8457051949524,592.5491830006877
2274.07754,-2539.307265837278,651.4854431983762
2274.08448,-426.34449672950154,592.3583070251376
2274.09143,-1047.0732831062567,644.1561929558184
2274.09837,460.1367193341254,642.3442378418553
2274.10532,-1164.6348897705766,636.1826793518721
2274.11226,-1999.6490640019556,653.9161508034872
2274.1192,607.2971993072728,638.4730771706598
2274.12615,-1488.1325409007795,647.3627043469957
2274.13309,-2894.1267990078704,613.2858760962504
2274.14004,-357.48655798886904,633.8832843958121
2274.14698,174.87849604079923,638.2351655281035
2274.15393,504.7969143246798,648.5906427529511
2274.16087,-162.416322040459,667.8942854903115
2274.16782,-1609.3607657231164,630.9233401210226
2274.17476,-872.0837464472227,633.5749900844672
2274.1817,-261.0193660425478,673.2213879702377
2274.18865,-1682.1232342643216,659.2584003626187
2274.19559,-1956.3655449018843,625.3390789580462
2274.20254,-2449.194330561508,619.1290042594804
2274.20948,-3185.289649883757,662.6907512881133
2274.21643,-515.8980150649967,659.8675862774262
2274.22337,210.27915623652916,657.7066789026723
2274.23032,-287.06869786571286,669.3784714768086
2274.28587,-1017.5996863923609,637.6383933849755
2274.29282,-572.2692939253706,634.3055804085446
2274.29976,-1300.6907384811864,628.3886529421186
2274.3067,-1935.7736032173739,623.6129952555181
2274.31365,-1391.9704544070235,623.914570185862
2274.32059,-1950.212072446665,631.4190937735104
2274.32754,-1207.6713862030065,617.4132843479875
2274.33448,-952.7065241056819,633.1824187910773
2274.34143,504.71844562112716,624.9412688252321
2274.34837,-2923.170697001151,626.4650877708528
2274.35532,-957.6651995086958,631.9158724163204
2274.36226,-1819.0900715957098,639.3689187122332
2274.3692,-1249.2226716586163,630.2010636073359
2274.37615,-1539.8396582440419,643.3503227869684
2274.38309,-2251.897132306471,628.7141443133132
2274.39004,-1162.9536778665965,642.5101723862327
2274.39698,-1612.3011212939712,639.0632438206005
2274.40393,-509.95751282116066,628.5918288015346
2274.41087,1932.5905527157927,647.9955789270266
2274.41782,-1117.8148123955903,643.1422497515687
2274.42476,-2931.0715501800373,609.1739565871594
2274.4317,-1119.971619809056,641.7427962983708
2274.43865,-1077.720835402474,630.7615055379339
2274.44559,-898.6242764103324,634.6819796324069
2274.45254,-881.0814531586404,632.8600023908492
2274.45948,-2073.9212293998985,650.7958524871854
2274.46643,-74.086072710563,652.4693200198425
2274.47337,797.4719675892023,650.3048821228678
2274.48031,-2243.9532295340537,653.4815549068885
2274.48726,-1311.0918847192772,658.7538773484856
2274.4942,-1169.0973559698489,658.0390035426813
2274.50115,-1382.8027131899396,654.9441022088065
2274.50809,-689.4406070525721,641.6866496062787
2274.51504,-665.2795351784649,635.9972699913736
2274.52198,1065.5815333536161,639.2135757345183
2274.52893,-850.3071437259157,635.4294253528934
2274.53587,-2474.9087183249517,658.0644005251082
2274.54281,-611.2256455486956,664.5504253959639
2274.54976,691.0931192275316,638.6910584458404
2274.5567,-593.2230571936054,663.8751845492834
2274.56365,-3650.8362681382764,665.1238505373093
2274.57059,-2248.7058818823125,656.7452379804802
2274.57754,513.3965831276563,636.4297020195143
2274.58448,-1280.2360316120332,654.329563566761
2274.59143,290.76640739683506,661.1489380679479
2274.59837,-510.261707171217,641.3250557981811
2274.60531,-2357.9853389679006,664.9084886818407
2274.61226,-2007.311094435777,658.811504582154
2274.6192,-3083.25288830241,616.0842135635783
2274.62615,-864.802329086366,659.9550521182512
2274.63309,175.68356899495407,662.0508156636407
2274.64004,1865.414964757276,666.2109097178735
2274.64698,-542.0358377193086,648.6907501410826
2274.65393,-1140.3174499284323,662.42425380435
2274.66087,-2515.2518818541685,654.9174524604301
2274.66781,-1408.3357915541733,646.7004467110626
2274.67476,-1320.258031506971,646.6244835394087
2274.6817,-817.4890035907905,640.6848923980814
2274.68865,-2588.5701229256147,655.9252457227469
2274.69559,-2611.1235544233105,642.8931771032821
2274.70254,-2669.131059501303,648.1528579975724
2274.70948,-1448.2377536936042,653.9855084819537
2274.71643,-2129.586745479554,657.8326388244851
2274.72337,1317.8445209617098,650.7087283098014
2274.73031,-658.8207294950537,644.5787167441781
2274.73726,571.9623662677884,664.6810547181333
2274.7442,-1277.454891204555,659.5432337843673
2274.75115,-1139.7061001451668,651.0847858702228
2274.75809,-1457.732466823459,653.8495264325464
2274.76504,-1202.9461808178187,658.0144037749493
2274.77198,-882.8062840952194,642.7224592707347
2274.77892,-1247.4482995231324,654.1430153281267
2274.78587,-330.4772657850884,647.5408248874255
2274.79281,1120.8630197259,650.9789840914125
2274.79976,105.67923552288529,646.6485138680729
2274.8067,-798.9828033240753,651.5150540299055
2274.81365,1755.4961414862835,666.5424371431876
2274.82059,2371.537647119772,657.5939299672339
2274.82754,513.2866813875572,651.1895626587109
2274.83448,196.8816216233053,656.2478898986022
2274.84142,-2109.3737085508046,652.5471053965135
2274.84837,-431.45589569051856,646.9973522410502
2274.85531,843.5909515838265,653.7299442282936
2274.86226,-515.3288037727535,653.3652754492296
2274.8692,-1341.0667017007124,639.8432614557692
2274.87615,-29.051870140231102,657.3407573576587
2274.88309,-1791.4042857792992,646.3127725936565
2274.89004,-1472.3369844849408,658.0336508154434
2274.89698,-74.96642550949004,645.016159836116
2274.90392,-654.1033823690028,653.75978283545
2274.91087,-218.14117367098638,664.7434652399719
2274.91781,-769.3337054894622,663.2329711685394
2274.92476,-1243.0412966890713,656.0703387972402
2274.9317,-578.1018305219384,656.1190827814501
2274.93865,606.688355055906,610.1022561556015
2274.94559,-578.7534965912091,650.319231987378
2274.95254,38.187836657327644,659.4510985431859
2274.95948,355.8042072067533,663.9790502352629
2274.96642,-1538.5960033198135,669.3675382467054
2274.97337,-704.7605679589262,664.0750576621059
2274.98031,-2548.693671656425,676.1409020712084
2274.98726,356.5557528885283,662.8045252138737
2274.9942,1254.1934191698692,575.3602091857701
2275.00115,-4339.085608660865,675.1214922519072
2275.00809,-3362.784262890166,670.8901044263769
2275.01504,-1392.512788175263,719.2239786193894
2275.02198,-1370.4469104074774,640.1143144520754
2275.02892,-2875.8008831500433,663.8960260191674
2275.03587,-845.6016409324768,655.3538705620459
2275.04281,-4730.839301436961,740.7657446691072
2275.04976,-1648.7908906509094,645.4739888466837
2275.0567,-263.62466366586773,635.1053006354615
2275.06365,-321.2039505648218,627.653507105498
2275.07059,1722.7421201902007,610.2406298490939
2275.07753,645.165352871898,566.8050705179012
2275.08448,867.7262848120662,560.5147049107658
2275.09142,-146.1759198247996,650.4948469959093
2275.09837,-1559.2456861258056,601.0591082065677
2275.10531,484.5048392533102,687.4249066401251
2275.11226,-2642.5229940647437,681.1486631218729
2275.1192,-798.1285308344565,677.7913642655235
2275.12615,-3070.920204746104,689.0319775774685
2275.13309,-925.650537898336,697.6497545428032
2275.14003,-2892.6544573539854,707.0050689888434
2275.14698,-1006.8057410852535,632.2429582169051
2275.15392,-1411.8081171022325,674.9442828139859
2275.16087,-1772.9004771566695,675.388331399111
2275.16781,-1423.9859132320785,685.6369818548262
2275.17476,-233.13393488894232,664.012988803708
2275.1817,1451.004544236572,604.8387030756496
2275.18865,-1096.5089080077844,686.6821303199952
2275.19559,-1145.2076787554886,673.0160482423637
2275.20253,-1879.1099743395553,678.3458840298156
2275.20948,-913.7049590203673,675.6017571617489
2275.21642,-948.8278468387902,664.7264959557494
2275.22337,502.8438522096984,668.1485969780224
2275.23031,1230.737882300853,667.4882754349201
2275.23726,-88.26430828583673,670.7289531701697
2275.2442,1263.4777815080524,669.0532078812411
2275.25115,-1178.6071022910953,676.0352141802117
2275.25809,-219.26729637160665,674.6036443635859
2275.26503,123.45336492394635,654.0457551353344
2275.27198,-1063.0174631188102,677.5240695670652
2275.27892,-1096.3147292856409,675.2583854038231
2275.28587,561.1553238621199,609.0959434348612
2275.29281,-1448.6324888554516,605.985097807086
2275.29976,-1418.0482581835818,663.8503570059243
2275.3067,-770.833721882046,655.1022923818609
2275.31364,-995.7094236331067,658.8269933248001
2275.32059,438.74596852520676,600.3216846136758
2275.32753,1265.7824153035372,606.2042179604025
2275.33448,-854.6154058256083,682.0597656304652
2275.34142,-1026.7846246692945,613.890506498515
2275.34837,-621.9720996375432,687.2994022695666
2275.35531,-60.026280461405804,686.6962524088783
2275.36226,-420.89223154245775,681.9926857082701
2275.3692,1868.6792172699354,683.3956696836889
2275.37614,-2484.4213118415378,683.9118092548065
2275.38309,-164.2685934404273,686.4844210756307
2275.39003,-445.5618125041728,607.2467470058594
2275.39698,1555.0556395766027,624.9154162915509
2275.40392,-1065.621963527435,600.158255601197
2275.41087,-1239.6174873495947,598.5436680681578
2275.41781,-240.48459604045198,602.92743778825
2275.42476,275.2552288514902,684.474187278235
2275.4317,790.864993860331,678.8532542392879
2275.43864,-953.5850546995919,676.4130939456504
2275.44559,-1016.6700201701561,680.6952757360347
2275.45253,-55.66460497714692,676.7951875601914
2275.45948,-301.8086281375341,675.0987146891923
2275.46642,-956.0268094226196,676.6745803656164
2275.47337,-280.06026959399287,674.6985129122932
2275.48031,394.19237252815765,683.8537264698837
2275.48726,-508.5357373565023,670.0168126718911
2275.4942,280.912605990781,686.0708944245433
2275.50114,-1980.7530257493763,677.8486498357513
2275.50809,-2457.410311320554,679.6243886249979
2275.51503,-1232.7572271233346,681.371086021783
2275.52198,-717.085165480469,680.0429263398825
2275.52892,-2200.438632060241,667.1618729612169
2275.53587,-1217.8517039705766,612.8731466598581
2275.54281,-1348.6618799879657,640.3648676419383
2275.54975,-1996.2839068864696,605.277626709164
2275.5567,-1191.710009130603,667.9496349677086
2275.56364,-1921.6666614133974,668.9731447482985
2275.57059,-747.4638286488378,669.3685632370276
2275.57753,-1383.2928863395623,666.5201151317272
2275.58448,-1626.5212675846399,663.1772800277016
2275.59142,-2060.3861183078766,655.8892571736575
2275.59837,-3144.9053728538406,673.6917446402986
2275.60531,-813.8296742528426,681.201848730812
2275.61225,-2240.277614238765,664.1026185129908
2275.6192,-878.5020080690019,671.4893821014035
2275.62614,-364.47163925880625,666.3703526568773
2275.63309,-2397.7153305088345,660.6249402376937
2275.64003,-961.3279454810507,664.3454273315307
2275.64698,937.4751679182884,672.3922846874186
2275.65392,-578.5785649095593,675.4135006059109
2275.66087,-1038.2472053298952,669.0336191773064
2275.66781,-1140.6447635046443,670.0726177005423
2275.67475,-545.4201279874749,672.3533350551763
2275.6817,-309.8492216636751,673.9832974430481
2275.68864,233.92477186640036,672.4172261185913
2275.69559,920.2287946453297,673.0055705635149
2275.70253,-2107.759007129952,677.2949272861543
2275.70948,-1579.384354312291,685.4328948929015
2275.71642,-2065.7252928960415,665.5760990450119
2275.72337,-3715.2767263659985,655.4133200007317
2275.73031,1087.3602999433813,678.1259666618041
2275.73725,-1400.4769629784962,680.2676269960641
2275.7442,-1148.154753707344,661.9551499002386
2275.75114,-1027.9950243519595,673.8835317183573
2275.75809,-1405.2120766034645,671.2635425670862
2275.76503,1626.031549986272,676.2047931346234
2275.77198,-117.6538557933148,675.0208154247077
2275.77892,118.4338734284837,647.0391490686318
2275.78586,-722.5920968180285,669.9011026532999
2275.79281,-399.61935462058796,669.3622994072811
2275.79975,2359.861982359974,673.2826596139406
2275.8067,-2442.246604494423,666.3161420576159
2275.81364,-2360.9246695484326,661.7329547759556
2275.82059,-2626.7733344377752,658.3321507748209
2275.82753,-2800.419336560076,658.1460580874409
2275.83448,-1406.9683405765895,661.7814709845381
2275.84142,-3844.2463614282183,659.6742047699775
